1.0 0.9633120964461573 0.45354166369882076 0.9579549468700768 0.7853010032938763 0.36811425369711304 0.5702835349201573 0.8181329043559831 0.8760719031555835 0.08176455783963288 0.18551209958808879 0.23189502670171103 0.8650740757058332 0.5117498943677667 0.6892715836231063 0.2306273848768705 0.019607494644294454 0.6595884916609477 0.2883252061797249 0.0863138401910476 0.7734441158327509 0.7155757907165937 0.10884099561393634 0.48097531494161117 0.9770205842193118 0.538814653782382 0.9588687718871022 0.9526475076784119 0.598210055574053 0.3410068796408747 0.5614978609129944 0.4035014072153015 0.10497893532394365 0.5396826959179918 0.6218522841114658 0.7515774229671697 0.2755913207392655 0.40782649111591307 0.7346651538498928 0.616239747078749 0.8009376357174871 0.30924969552756043 0.05781466651053757 0.7881625078463276 0.056737189148591605 0.6554315307013424 0.9818565386259185 0.2125176740187964 0.12114617204108502 0.9718459992875825 0.5401906501473628 0.8003263463272715 0.6557115097680657 0.9835672414601193 0.6105282477825331 0.22077597795722648 0.1855554951409203 0.8217074773204968 0.3414619334976583 0.004921112344334566 0.8911794033151552 0.12731860814660534 0.9264909914681102 0.4044901514809911 0.9373899399038005 0.7052717745004811 0.9015167536286781 0.23177251856984304 0.9310584374851123 0.9705224132789264 0.9823481672266741 0.20075272615472484 0.5073717420828142 0.8720742301868583 0.16473764082736908 0.5372233721482303 0.6649167372250109 0.3453933904764731 0.15920939739850015 0.7178085463365136 0.17293956345721995 0.3401778424650136 0.8325926483581816 0.9643267607324633 0.3811253673467987 0.714458400436848 0.14858475737823995 0.8007686624624984 0.9966346128660563 0.17573962374151408 0.8747242503738124 0.8658316280513334 0.05526721211269714 0.692634790904386 0.49792554505059894 0.14711252231367078 0.7138960467773127
1.0 0.1837470896813025 0.9908067697709594 0.11305216472451385 0.6394713377294136 0.4096615141275681 0.8919336708121307 0.23532130021735898 0.06699108122412667 0.7843973102231582 0.5768757075270453 0.10179455547869465 0.6617025281450497 0.6251445840475023 0.8150379863469955 0.7024784980972205 0.49692365277218087 0.6999590128175263 0.8549880619417016 0.871142722556826 0.45498280712267003 0.6920157685381733 0.6683288441870113 0.5267139528760397 0.049081555462618165 0.7199266605716886 0.860225584820913 0.7904128901584383 0.3163866877965369 0.14168486215924148 0.5378772470798824 0.4314808363407089 0.4988211405318409 0.03451336928641158 0.9523440612691985 0.10346731112955099 0.262215677688338 0.6533892180879867 0.4023826355749869 0.9732309334007295 0.32967438658323966 0.5319262590841033 0.5916373332367814 0.9587561349559812 0.31218337773098226 0.7726708817972455 0.007988477624964685 0.9594117698020312 0.4853113504975357 0.5472329888026372 0.10402844846822312 0.3364196298769281 0.05437764792136979 0.5018653443931251 0.3395470745168505 0.63381625349726 0.34013875221239775 0.027886399414594143 0.691171515145061 0.9716461467609236 0.06902888638293492 0.26216973618207007 0.6252052606365309 0.3164318554525928 0.4994463606340056 0.7171683363364277 0.9166379985493828 0.6680083119147616 0.3332174762174137 0.7562484294487133 0.995684438621735 0.906339834989159 0.16691153439636264 0.4145213860503545 0.6805797336341309 0.33404494727866985 0.961839334723889 0.0033799064420309 0.03691560751840217 0.7242920336067469 0.09888933589474369 0.04414158466070295 0.6403537612050575 0.002892415178253116 0.250898170873302 0.3963189168094454 0.9015149386708502 0.17751340954915074 0.3741927265918219 0.4114150685163074 0.29679642472535583 0.26363925100371344 0.5864612405998532 0.22284493172429087 0.6310061763799145 0.5043588222211212 0.18412061025169502
-1.0 0.17180480275617882 0.7987877701470529 0.4211832865962424 0.38429433116628753 0.41702223079813505 0.8807221747317286 0.31584511535604853 0.006662118631576841 0.6072737244306505 0.6205480231732893 0.7540858720101516 0.28407680667170665 0.1428833616273968 0.6755824622072963 0.7091875078011086 0.7529206071113672 0.0834827953385392 0.9556316875943951 0.2701913136961017 0.28602908030238927 0.4223664430748575 0.9734318612512886 0.11492432696316779 0.9347570872497989 0.09761014216746444 0.731156609756139 0.30671258615675634 0.09936142485741084 0.3749079643025325 0.8308526658363736 0.2567856878292528 0.7679717419096003 0.17882091686197388 0.3181174553132089 0.812189515548177 0.9959148894605598 0.036814313297651724 0.33787955710462814 0.18131757962066386 0.3285841112708434 0.7610586696451775 0.4393018263006985 0.23820459527488125 0.7844589341786107 0.5812338785372385 0.713199823098578 0.3933330178382174 0.9495501633346018 0.5089538251800338 0.40723188633048335 0.1318790758569014 0.2528979000791822 0.6331759345593977 0.5090940054727003 0.7527834656642669 0.8060025325439082 0.3442862860142858 0.7123717386123167 0.2232759345885219 0.28687590058141255 0.6457198249956336 0.16384903052696054 0.5637623128591488 0.4304434297333154 0.35002271616970626 0.2793367388887553 0.30974469738930077 0.6984902827407306 0.9924404320905177 0.5555771811902347 0.9197512546330905 0.08968731530838248 0.0907551330982006 0.2251448419719131 0.02309097579090269 0.4551364541179529 0.6711253800888912 0.5055724797979357 0.9590434098367775 0.7177556650523012 0.18922889175249247 0.5752854237028653 0.14334139054349637 0.19318903631687812 0.9812698849699809 0.5275036251972095 0.9863237961516477 0.6421110253631637 0.5010069779348203 0.8027930898653431 0.08342387066473711 0.21055285612359642 0.23032055063951262 0.5514869382963288 0.9482867068463479 0.4867258148122744
1.0 0.36556278329132597 0.1726416332629992 0.015301094450699382 0.4560894949238439 0.6812488507511512 0.6945919422419733 0.12456641898337417 0.10202280796745522 0.4526473515675705 0.12875119780735467 0.9772066533348241 0.8922054801909363 0.3579553802868026 0.3295327132837639 0.8944796403584055 0.44563354189433657 0.7270778981949912 0.6542966775085125 0.4359358785600357 0.7780187366011524 0.7086405565072278 0.7602160266442256 0.22423018575984677 0.5292092649059453 0.5128392464231017 0.7347058151108345 0.24178516485533508 0.28182828499600554 0.8324939360462935 0.49457440552038034 0.7452125892424668 0.4899130674661559 0.9337197753558472 0.9303836838674047 0.642548468387286 0.17946643826477016 0.2431602002197486 0.9126488212201319 0.8511489735637017 0.7652989473147515 0.734964725621679 0.7257282466114838 0.9926068425500065 0.35798366989451724 0.8719182602510805 0.8762026515588918 0.07969947579142556 0.3879297155525995 0.5419413045893503 0.8244424735160464 0.35578891852560635 0.35313044585549713 0.9316605348706446 0.983649541818509 0.6781764359178253 0.8973987238991106 0.6958943777851181 0.7464472541258222 0.8973201508690638 0.14942426397241182 0.5229116022886147 0.8949247927150936 0.3841397894470876 0.6962080069980808 0.7588526425170625 0.43638625243290796 0.9349870325972475 0.4733443574619508 0.2659151676433894 0.166372053729278 0.1364374558518925 0.8299777416353263 0.08268923604619449 0.5811937063928422 0.8009437937805804 0.8218415791721173 0.8494804456334089 0.2693815882603863 0.7584372806777785 0.05083449776130122 0.6798544029172013 0.8697659594949712 0.035884630747356594 0.889868757546653 0.4271331548890991 0.3879714321833063 0.9288295426598314 0.10802450559185062 0.45866990472351254 0.34071946231927686 0.8808132591434873 0.62462279359157 0.7486307749545809 0.6921525510982912 0.6678360681002399 0.5038229792064014
1.0 0.10214032590292454 0.3977752322373638 0.9697752373801222 0.6597164136297401 0.10418452534421563 0.13873727896623544 0.596756656977756 0.06573331657454917 0.051407169230089256 0.7876637084992213 0.9581612599248498 0.23875818218904687 0.21050615118019989 0.2752832189027018 0.21334761875003805 0.2979871693781334 0.44022012489940865 0.5885333496202034 0.9761026644733161 0.1623822793857289 0.5649702591511021 0.8694472365591366 0.6683153429635915 0.8249761918416572 0.5817586341803286 0.3209339993781892 0.24975606212473223 0.1219111324407125 0.014009180763236873 0.6765026918558649 0.16007851002561146 0.7296136234794459 0.34482415171293535 0.16592406937682613 0.6912194236120714 0.574493423499906 0.4846859206098182 0.4631954369357606 0.9483296507504229 0.44173769634188287 0.38693247756482174 0.38406195240040597 0.9312907204042816 0.14012919124711154 0.11351230700946058 0.904332583543907 0.6380546741984524 0.7665742371906228 0.4020152976330569 0.07426843155652152 0.48611526326716403 0.6431009017003061 0.0671954457039522 0.12570933256461736 0.016856220123948495 0.49595463947404006 0.4228015017584149 0.06942984813263087 0.9041405971953462 0.24665160892441995 0.11447860524136466 0.987690786809008 0.792005671331012 0.5586492429341855 0.7792090009525934 0.740652028045421 0.7417308355948882 0.691929901190464 0.9056809888305378 0.43338981543637733 0.7925440618386695 0.6121327309190487 0.2566092931611208 0.03942268613967459 0.8388653931795238 0.7853749075428428 0.14437543599388214 0.07343591106361846 0.6657022362111794 0.06162127658755778 0.42626247513144366 0.5563132158454287 0.5526263822835916 0.9270624235723729 0.5643141717638985 0.05190553428739464 0.8969607209682785 0.8385279868401198 0.3282648232313813 0.3409196542167118 0.3646553256384125 0.6016436872239774 0.6631778486886887 0.00125502667949684 0.24153720476982266 0.1137841604496933
1.0 0.1607963725193683 0.49609720865378903 0.837933654473702 0.5556432349566407 0.47144296085223014 0.6658681426137136 0.8778531882044488 0.5895909607799705 0.8930341851207493 0.5467943518532796 0.4701853906637443 0.5184202501050961 0.25958089141101137 0.17359781458646173 0.4541071708793999 0.75552184587255 0.8345855219710226 0.07208365971776198 0.9774953813553648 0.5717819354306475 0.4626024502691004 0.44157315376659134 0.04801705819605817 0.006085118354145602 0.9992773000202663 0.8218203342147588 0.7988746070124987 0.03964828470960946 0.9590932809334729 0.1337283097805726 0.08314936826385677 0.7872760892896683 0.9376184295807173 0.6785134431516893 0.12483534905629035 0.21327737661968327 0.5385691240661818 0.4206939766450105 0.714385382521226 0.7035162152542803 0.9442006989674944 0.7270975043930007 0.7814692665461326 0.058900074729498764 0.4803524423352423 0.8974465815349336 0.9032047174897152 0.1072158217452821 0.8623374568300816 0.4614819424008426 0.8248560861516755 0.9771020938604891 0.853695001502971 0.19581799320344162 0.12812212386220467 0.1305286581008802 0.23415562133425083 0.6753457136306622 0.5681381415792167 0.6354607623650337 0.32313746060504756 0.7767583297790176 0.4878806086608356 0.9549290372565253 0.35722105828310224 0.1559423036793086 0.6523583581640019 0.395894602090915 0.5736569798918031 0.5624639225941219 0.06739323145104381 0.22837900052161564 0.7726436748848758 0.8639088756383618 0.7319965229560325 0.8269573494052461 0.16571997355898327 0.08430820906004688 0.33497715954872775 0.10157628286558185 0.129821031515303 0.6002036659784215 0.4798421181382436 0.2090474628768375 0.3976811053423679 0.015211006147380246 0.740893148536235 0.4753295102614713 0.31056003391533027 0.16330426863497416 0.2620934331239272 0.8132224792847819 0.2266859759466432 0.16146970687648998 0.5120298878466983 0.8427030475448942
-1.0 0.14178468832355529 0.9980117625684014 0.830191169592613 0.3230845849727919 0.7947810766419015 0.48420906263616526 0.7013720030062555 0.10197743113345614 0.6632084115746962 0.5458015186310445 0.06426764267701468 0.4012155524567236 0.8209067151602759 0.4935810969690526 0.7753434143473888 0.3743689874811099 0.17821679132283863 0.18555833725287973 0.26037847667858227 0.48992152008266276 0.3661402015624642 0.6625657050828611 0.20069577745560674 0.49885946481587173 0.6764374567021848 0.21401819177545212 0.06697751269031582 0.187980055711919 0.9374775920161652 0.3332774073375133 0.5750357785984818 0.028903888202847727 0.14126177370801762 0.9413589866379664 0.6332564908224426 0.30796652078501574 0.2228494582918713 0.5678956076915835 0.3203854528472956 0.31276944787913374 0.9577227587094544 0.27057178048972097 0.012347299328697825 0.7475839928285776 0.8991493568677786 0.6737317096288494 0.510026807080126 0.9235460574609471 0.24497860686681472 0.055666731950741344 0.53295720680823 0.8484888933040569 0.327292920408943 0.2105677710552447 0.09972228905186442 0.39975082852554067 0.28111233153024795 0.9714179460694715 0.29826034856066774 0.28455241338312587 0.7483356392398135 0.3907085902799029 0.1803809335262868 0.8363277395529097 0.10923486677356042 0.32022145893127174 0.3943845595223747 0.15289404593955513 0.12634922385845204 0.5294242396188176 0.21223018296287555 0.46028125940818965 0.7911448598691446 0.8243675534710572 0.45931003748861976 0.4956584728579314 0.4323277312596706 0.4973400922192893 0.13324293666505838 0.5469660734897082 0.8982035867983852 0.33173875726033564 0.9148229474925125 0.3757296899673054 0.9144458221108885 0.24151164697335736 0.15212272468626786 0.3796129829943956 0.41979508475267036 0.6474067566444804 0.7841517998151355 0.7713750778559559 0.7588998253237097 0.09196766906781662 0.07716527768692816 0.6087386496271152
-1.0 0.7019254629429001 0.06793501504211175 0.17583168987113618 0.41262051140805944 0.4444994412620472 0.8943812995206456 0.5085347920086083 0.3754002218437835 0.6854275485961101 0.6967474694801616 0.8645240845977589 0.22349609507136936 0.16532917617586418 0.24474934148074967 0.8098267736211265 0.6105048806487047 0.8395330382495938 0.12653621517601588 0.7174943206042854 0.14294735421824467 0.13810316890556495 0.05745377508891125 0.48816351568626315 0.1870401428844336 0.9975151917394631 0.5418669711010303 0.27733391288566345 0.5986302262813239 0.15340942435986082 0.5355982460632381 0.339881071604323 0.39376008092106096 0.04357299296959294 0.5480709165491169 0.8368111127898576 0.8921528407776301 0.7146956887412005 0.6677171348037738 0.2034099498772146 0.09402006257592022 0.7849911938757332 0.23423507138788835 0.44068138475630525 0.03351879874901531 0.1474740943766637 0.7966727169441054 0.7243117282895974 0.8402744334508645 0.014179754269908251 0.3166439688955891 0.5804390772384503 0.26672129283980084 0.5848890025054169 0.24032718058108538 0.08272845832496745 0.40798518433340025 0.5571591388919536 0.5562402469728098 0.8704422519824001 0.23101369798366356 0.5674388113470762 0.9098406953199449 0.7755399108910309 0.48375514705309675 0.2727272462712088 0.9748398793128531 0.3515598755575001 0.6771372663134513 0.5568624879912611 0.12727773757001848 0.1741143541957061 0.6060333521433537 0.056063777977531926 0.09670958216938563 0.7579142713381288 0.41129451210003043 0.03751368738868632 0.3406997486474609 0.9203261534278473 0.5630735577072699 0.474526764855146 0.986499581157956 0.6451746069388935 0.8452727497473507 0.6946428295466862 0.4682092073660278 0.19397816180948002 0.9923081310060414 0.654265278215814 0.5614073957282375 0.6211069490133759 0.8595121462578973 0.7332449463309695 0.8207979353954556 0.0563610462622709 0.977923603978644
-1.0 0.46245150503394594 0.5081576208886726 0.8063517550468972 0.6748438588938475 0.22334482178184578 0.36737220778680935 0.08891046737889541 0.2649025006410546 0.13944290880182597 0.17267930755910088 0.18399816478600006 0.7000514844395357 0.9864001611663449 0.22497131977878282 0.9162528242638646 0.44977672887198705 0.009845147439485724 0.3621496143299958 0.5036619567659816 0.9128390648136439 0.8916112956713019 0.7549277333695671 0.3891733120721306 0.11349270693303892 0.44235594011068446 0.24348599506530755 0.05100619860193889 0.22828391277595994 0.3897185846576693 0.3004174647831328 0.8145488787447004 0.6419103282808221 0.35286973971090163 0.9472934856228633 0.062010378949347134 0.4968497684688321 0.7729874290945571 0.06523191290615982 0.2469310484623678 0.746130694784994 0.858570515951724 0.6692968111996438 0.31302047178981984 0.9827475908042779 0.6874656540796265 0.9652298812341144 0.8372419856748579 0.058651488865411605 0.9843239264724655 0.05251451883731373 0.5411023380857654 0.5156770701081684 0.8938645480806815 0.21946399993857535 0.5691761249458859 0.14431539143838734 0.23089321347127623 0.1443786069294326 0.25568315295443733 0.04283090309882687 0.7796949804268127 0.30672684274571627 0.4576530722703672 0.40574756473484785 0.9442635064123597 0.16003606543642646 0.0861330061989174 0.9732536208920682 0.0801674217039271 0.617277965119853 0.5009946389919115 0.047778692298509284 0.06009055115923778 0.024772351016237537 0.9306043122526213 0.2859895506273933 0.7830832886430572 0.2515676263400827 0.9435215269275921 0.1591341346070897 0.39923442843483214 0.1950230967120976 0.12204721810684205 0.25444722881634907 0.4706304956081533 0.9148551076244256 0.6395282796977118 0.4256505189481967 0.4998379212299776 0.1788038789543812 0.3923017978429475 0.1937084790601763 0.7129619383598841 0.27759126878818385 0.3012662917820712 0.3943622798867781
1.0 0.7789534539293059 0.30255014233624167 0.3046585545800109 0.22253280591832314 0.7180051656934084 0.7703876013814449 0.1778615653771931 0.7430251375547978 0.2368168950010856 0.7992658828978836 0.32837377945964785 0.8920954311652073 0.8114474931169475 0.9891931151505277 0.9823223422214262 0.3314204826436975 0.2063711136301034 0.5528442061820011 0.9009302327264874 0.1464258052613039 0.7936575815987869 0.15045505323569275 0.43481686240363915 0.04351326786716747 0.5681437360950143 0.787242994910088 0.5513450405363277 0.32041733479407264 0.05917766038357586 0.19008225275765833 0.07065773832569833 0.6065676047214339 0.1605568621602137 0.35305729687443566 0.2072548034920273 0.4376626372341752 0.1628646576583218 0.28609375502299417 0.7067464207698817 0.6070034290379867 0.1764664685363594 0.7825221292401383 0.15708055336202076 0.983812317497598 0.6856984028858172 0.7684934882872861 0.036122359751157185 0.11805837151669452 0.11294928411945826 0.5627449438700378 0.293644081571903 0.8066901172217155 0.19003720082712483 0.43173779693436576 0.11319886767007381 0.1187779233814239 0.5950769553065053 0.8688890308199695 0.30176678290751635 0.7023467965122513 0.7918938719682286 0.16471498089680336 0.2875288786065464 0.3147870933370791 0.9271089424030846 0.6012899364641423 0.3917117348560838 0.9735966027647478 0.9028591497795796 0.8483286551935828 0.3627198239462026 0.08993140683745027 0.8816220501762836 0.9599563718470182 0.4662236082331491 0.4059669327358574 0.4228940055467365 0.4215424339131356 0.12533226608500947 0.5136087659826961 0.9831056123380872 0.41419962110831376 0.1444245079575548 0.8554488454442627 0.9144518329728144 0.5563019308342316 0.5506668687890395 0.46914487843099073 0.48997838117236625 0.63598746601531 0.1772882924628556 0.4390760168960727 0.8920817144702569 0.8987190609798683 0.7013208156474644 0.03821348020294679
-1.0 0.10770335913828932 0.515789334731741 0.3181286121604998 0.41408646477358835 0.35028205272217494 0.7888763557467862 0.5100794755362222 0.6781646705748351 0.6591196495577498 0.5525983882905824 0.1306664868261026 0.749823444342876 0.8194328644133876 0.645571040611243 0.8352815198206979 0.6116536432116628 0.8660070463022483 0.41523897386181374 0.40254067696565843 0.1841693338940048 0.934321448118575 0.23557359422184565 0.472491042466044 0.8491927220954928 0.2434258512993417 0.33269091731096045 0.7118939655043995 0.18198966203757905 0.25243969047726444 0.3945998341524549 0.9406504346733556 0.016270336077614855 0.8193957727003928 0.2362778789740202 0.3748831384499106 0.9389284206152373 0.057092684270409366 0.20867574765870434 0.9959971444643609 0.8123948917661922 0.17304692095521335 0.00923060333160941 0.7419189961279498 0.29200104535578764 0.7890174973581513 0.4622563246802539 0.6546570647549727 0.1413718708867987 0.1364733493809963 0.3955148788976274 0.3573582731693321 0.7458144159061219 0.2879516089259456 0.4802193542302582 0.5350693718829164 0.7427368295962893 0.42792015747727696 0.3574214184559912 0.4024902008161937 0.4424450628381541 0.12360577466775713 0.3650119290353555 0.8057067683974292 0.08971574030357143 0.8367823197269083 0.2821179140423149 0.4150180009988449 0.6568617331597782 0.3508368461477709 0.940548192728971 0.5895295456851648 0.22464239364754646 0.13144270721539353 0.3138905853184578 0.4592795165719662 0.558701664681474 0.915918015312794 0.4032330974573265 0.33794468697807667 0.12048671612069739 0.33607438162180014 0.28174222520124137 0.6552445048411762 0.5090166275990848 0.9631623450090633 0.5726791525923125 0.491109486775429 0.6242974374546935 0.6482610339055507 0.08870709649525421 0.9215819158852949 0.19642252139193883 0.19233644569824493 0.774791170771961 0.4203634394520176 0.5053805463557738
1.0 0.9221371705467662 0.2012270730533714 0.8232202823604228 0.31319005375553643 0.543342279402647 0.7129969762467286 0.9270409724045626 0.3366177821867694 0.1801837780551926 0.8743372190800558 0.32254382279763094 0.05970805094031417 0.49517308309298924 0.0012908526042958446 0.1470836497831357 0.4679436136401639 0.4704004062968271 0.5162291583894918 0.21837365141460918 0.9658523654402335 0.7829088637316964 0.7032069426750747 0.4080447050798791 0.858245919497604 0.6463849842386595 0.2771362572506718 0.32326571909951185 0.3021363983151497 0.37856197638409017 0.4116976085256203 0.9607874591716666 0.9732126179295519 0.7762874806721036 0.9993071312605877 0.9400294981577937 0.7637428015116567 0.7078865788502031 0.26913635685683146 0.47297194097934736 0.733132790601458 0.43765145415344364 0.4663758088661174 0.9403324882547432 0.3914067621401387 0.38097933036798104 0.26359407214736774 0.8019113722103339 0.8222283620748367 0.014506060261927578 0.3112800720819092 0.2719572380780996 0.5420764547490349 0.9176677583186615 0.26983994498546937 0.0977136774202717 0.4322773196037989 0.6572492279525055 0.36293365214749707 0.7684373966112811 0.19542056146355702 0.24065118342279235 0.786903100241664 0.01108939233706474 0.5794856953476394 0.9360573729832412 0.20837759970808145 0.9156643883263403 0.23335181556537232 0.09454724644537216 0.22663022632066987 0.2748858091520828 0.6190238201978124 0.8905133705999915 0.9233154055977303 0.8009194772262793 0.5820744872869934 0.20594360236670917 0.08525413107186297 0.7002458294730004 0.45001122082757083 0.6623400180349674 0.6391609561526856 0.21017802410668418 0.08202826862579227 0.991453398642094 0.6899143272833834 0.6023922207150945 0.4274729120591658 0.9167328076742248 0.5063763334102505 0.8125402458898939 0.4117299556458427 0.4666177051518682 0.2725536582625133 0.4011194159323308 0.7543507721189209
1.0 0.6928239669722251 0.03706158960998085 0.24752595173514624 0.5272598712075003 0.8823401201106513 0.39598165063658775 0.12679414515372622 0.390437436024342 0.9457664998193687 0.9168333384522928 0.5246069617236869 0.6883287419654844 0.8053953258347183 0.6966191768718717 0.1657431118923265 0.9262320551489415 0.06862689317658122 0.44423287818089996 0.9090224956787598 0.05657582604670619 0.7005919377653824 0.9855807914442632 0.20608785014713016 0.17224509365971108 0.4478039267739914 0.5362390412434817 0.15344858899185465 0.7404542819156917 0.20077580974918408 0.49174433916747207 0.3840977529842522 0.12295273594225953 0.32366125037418425 0.018001536889625358 0.5600378190852193 0.06923164361399825 0.20605624294290548 0.8901811208165269 0.2790260098292089 0.2842095860936301 0.9776006456131531 0.598316567431978 0.35946805801551396 0.36330519026050945 0.4891497765241468 0.6570966069029966 0.21762862112350856 0.6328561496208343 0.5181621490580143 0.6162326369449802 0.8817718390970857 0.9690807424983825 0.7338646847038762 0.28335942423289406 0.2584008468345098 0.05028977321886641 0.5775390825414188 0.9771751954617647 0.24029709273963662 0.3594373847722607 0.8905659300258792 0.997788604077107 0.28964330786582715 0.5377656916108823 0.27517336993853414 0.142448983883115 0.4406971879275594 0.76779144942944 0.7778485152732364 0.15471314708028128 0.22784676187187214 0.3075023594098718 0.33764153540200237 0.20573641157859124 0.8786617217344848 0.42966579308864217 0.11001511197400116 0.22174544569704058 0.24524801084804249 0.16028214009136066 0.4200523886043218 0.9238484034629327 0.6136666916479819 0.1553820526257509 0.8288235831407852 0.4166041590402566 0.8931269275176504 0.16482069544717837 0.8161305965990212 0.1973389769486933 0.01628473402716013 0.8596627806092226 0.27056368492037386 0.7723822618559315 0.1453721785447859 0.5145002368187493
1.0 0.4362695970252378 0.015947336182751348 0.2023658499332125 0.20796857307221817 0.02325132748040426 0.40622643866778463 0.529577687245296 0.4524159525489585 0.28694611639037226 0.6962336093639677 0.6944187996311795 0.3766018384812887 0.5475060249605656 0.8885872800035983 0.5173842282650797 0.764556260935115 0.15384875907569706 0.04999053810262477 0.6234479970599313 0.8435388042668083 0.38587545593977457 0.312550740327484 0.49136756730628617 0.3806112573991749 0.6412281497221887 0.7822539422037158 0.293869021047664 0.2732700729804637 0.9394658188030803 0.7613260528691389 0.03227295316083145 0.40938124590077196 0.8353789002915567 0.3082587083907312 0.5870081224648688 0.5779793461809642 0.5039264439159837 0.21732730443854886 0.7937237871340581 0.8969811211988162 0.27689726901735734 0.07183971062049965 0.17513607773209505 0.037912675888999936 0.08315663775979676 0.6437779582677869 0.07731392487439159 0.5914990070603567 0.35303750607796336 0.021701286980513768 0.5155993886011186 0.043767047938029435 0.9791884845102008 0.5811459803509818 0.8129684702573595 0.9410722624950495 0.8809666302785893 0.3127858836721764 0.7594026521220714 0.9243820871263815 0.688353760184835 0.09363570582146197 0.6021443312661543 0.2890063686815416 0.6702969675820935 0.716350857867635 0.7377197526981751 0.9395485176319743 0.6255621227264392 0.03736619314763889 0.14752112954654129 0.6645175201936385 0.6576464381004211 0.4526644494905697 0.17214402729260114 0.30230374062016985 0.3012575977937394 0.592065959922942 0.37914067235794613 0.3124291720745329 0.5838850446822594 0.7795794371037361 0.9045992203356598 0.6874446542263455 0.16471865377316652 0.9123686588931594 0.4422390532324303 0.7516240219830242 0.3599770363117871 0.9699093958971875 0.9854727652069681 0.5586315750500628 0.3863320544509016 0.6684521078340188 0.5916281775252226 0.589158235388219
1.0 0.4986563776924372 0.6413905237947407 0.7188682374387521 0.14109957487185953 0.27360572365109104 0.10344259880283524 0.1168722121116973 0.0038788405171992224 0.127271567487922 0.1748972012591854 0.552462484929685 0.3319984351759764 0.8290136045440561 0.8088504664523893 0.9204359653886781 0.9032525692884005 0.6159114766775827 0.5812834683693238 0.05025151152180085 0.14114690772581118 0.9753248924531458 0.5436047121751961 0.17385915487861403 0.06635596017035805 0.8164845806229841 0.9230146388404836 0.9323674448591612 0.12721644790764775 0.05402479082652811 0.38178500450934105 0.9471249255889039 0.1874073907092887 0.03870953591712223 0.21660697849953847 0.07051080127728415 0.6305930123699599 0.9590934130878948 0.459493296283326 0.05425896202133773 0.88252102957116 0.48583745922732124 0.8025290355428554 0.2904031866407619 0.5094982768716397 0.4677821138822147 0.8519054427778417 0.31830744609144623 0.2310763759592971 0.5206976228207443 0.5782869434534738 0.3495560566243133 0.9947182646759877 0.565846503614954 0.3094319747074934 0.43587660165601894 0.7487012102296422 0.8891009201828374 0.9213861349997595 0.5930795269272404 0.4949270606301006 0.850011707584279 0.32506892909153406 0.2974826174215004 0.8684957105246165 0.9783606221604394 0.888833831227022 0.34046141147007536 0.33803504120914685 0.7706137449313383 0.6198238122125481 0.4329381554545134 0.7371265441963194 0.7511804304096887 0.00811156047103656 0.8620638270388443 0.307161861313749 0.2908651964044703 0.7435057035922197 0.4054799193520848 0.33563576159598374 0.8363575407549597 0.29246814319920356 0.38195579541082936 0.7963953248915573 0.4431427685914251 0.020779765380004034 0.9174047175680713 0.865976510283782 0.8350159891034659 0.2500818402188365 0.6356171713281663 0.12113140104720943 0.6922798020011532 0.9710370322431267 0.05215494164688983 0.6074258228846859
1.0 0.8447154863260168 0.013408492449089593 0.48001274654076553 0.6674123626952473 0.6605037171010991 0.07305828567154149 0.889014458851603 0.34427864523210316 0.43568725394761976 0.9859439414921329 0.21301167636057816 0.17586234599755335 0.5749728069848794 0.7960983244298355 0.6542805228358104 0.5344046370207275 0.35062963581706585 0.4141455150359865 0.8566598804654405 0.8829049780649686 0.7612421811285088 0.5120789027848318 0.25917700702964164 0.5416642966228045 0.32461973915102693 0.9175701333970836 0.9576191293917762 0.6731339080373003 0.9957009481678597 0.7216600588054796 0.2991038786088599 0.7278535078833271 0.818663731552158 0.24062805241941665 0.037574457583889664 0.18476957719460874 0.2720692046818812 0.26297124041138964 0.7102680671378042 0.45515817607289966 0.1081913254577207 0.9659918651534517 0.6292297078275401 0.5525623325398228 0.16220160996209565 0.40405213146699304 0.2083369107853692 0.4459301858699809 0.4114934224611103 0.04942583825557256 0.6568449229380204 0.6210795845320141 0.2909712767841851 0.3844059524328046 0.9780698564449366 0.49544314902297326 0.23288024843073118 0.24616743796411722 0.6119240186358037 0.04557866691297485 0.759925314336552 0.2382235045391622 0.6856200971206564 0.898067342427348 0.09966790018811622 0.5858821037803205 0.628853663466718 0.13441688060247736 0.8425840669033197 0.256445254447513 0.11791409828179478 0.7092030055915884 0.12843660596789508 0.3735648482846865 0.1506113430295617 0.9253148573082018 0.9264211697107083 0.796064776625713 0.1519401968156926 0.4858866351046611 0.2642812291089609 0.915525971932568 0.6854259823764499 0.3302527072773176 0.5053662411941249 0.9616416277024186 0.38388002665277476 0.6149896621347913 0.730340722813509 0.09556935734475713 0.8831445871656941 0.3874338439627275 0.463626075052315 0.11422396420203296 0.39667257491564334 0.9977649814851891
1.0 0.020023707576309002 0.05419332510906605 0.46961907852260365 0.6232028057735164 0.6885703340257351 0.5352374893890228 0.629025147555634 0.8233603607287606 0.4791593689275614 0.5940237320190737 0.16222629592137428 0.2135382234174228 0.42970404812209695 0.4156954004931722 0.4605227843324309 0.45315493376796945 0.5497249201013448 0.135354275312647 0.053015483971475263 0.6278960104914147 0.09853181338982286 0.25856193756947754 0.06754564525592466 0.7589231504616497 0.10670490325370563 0.1780644568730504 0.6696929616791844 0.6181720040684027 0.9971882432785082 0.9420396933566898 0.25471323887510944 0.4138300900990307 0.3821792417497618 0.7097099174839674 0.7308010677385177 0.36462888298223417 0.022073073654563236 0.6169240398297525 0.6602735006926526 0.2707993194729954 0.3129868848775865 0.6676552517587985 0.5281839042793003 0.7747284387464622 0.3248005796196213 0.9577848091616995 0.5979607797095783 0.6350251140240758 0.0180814950090884 0.6999448795148185 0.12707306376968863 0.5534011886125911 0.9141578857757414 0.6685433283178659 0.5516644056951576 0.3362808855188434 0.7462587200717622 0.7686783384738588 0.6658767676834638 0.8863962730687636 0.8305834834018568 0.20096439603889693 0.2971810242087959 0.45034315121509405 0.6330487497682427 0.20515825090926643 0.11583337407857608 0.2791880462062011 0.215252696406937 0.6615144136720048 0.8348493753647951 0.08225098013485066 0.6369162187771884 0.7371760020756981 0.972724123026192 0.7080497481111814 0.9083677016777449 0.8114369132324085 0.13224606782169712 0.2111153987070037 0.5139802516093288 0.017420534017817402 0.7716138882060685 0.16861844821268368 0.14625690837166727 0.2954697482492775 0.6457525735872888 0.8181892939044744 0.06231668624815789 0.6519001131301372 0.6375387175567673 0.39690875597525954 0.3628906135538881 0.7765736285479524 0.8330150500614105 0.930827497104009
1.0 0.5352916544167715 0.8838308502105627 0.03437573453788101 0.9697958243590148 0.4285467346137384 0.4210457645576018 0.6534200229278918 0.2929660246619522 0.9507796574560363 0.9107824048974795 0.5615852088936726 0.2937722478591137 0.2484623438413427 0.6811523500173863 0.1874319555614763 0.42439129388187635 0.8602083540576972 0.45707569501404033 0.38808130840503974 0.6355640374474404 0.7238859391136231 0.9434998301618709 0.5738092955443426 0.0045586927749780015 0.5924629652962479 0.07537268485525084 0.42282414061509555 0.32518148296395877 0.7682125550297384 0.7297881361963031 0.29699751178459166 0.8987264907486585 0.7029836621280035 0.026467459467910737 0.5592984331767746 0.08755800168457828 0.6878500143947707 0.5374777212604063 0.09411042200334452 0.6612985096806576 0.7993008590683155 0.765194339772066 0.09944609586291564 0.8263120762859621 0.8411131583199083 0.9480384994043495 0.767133871208587 0.8972033827698339 0.8803637320858312 0.35742169119684675 0.9389329536481956 0.4820042044349102 0.7754565212138714 0.16419771443203668 0.9446164299335125 0.43502317666039314 0.22247646120414866 0.5608320974109291 0.45635069600294553 0.6222079322897707 0.09686511592201952 0.3791888040579512 0.20152313475464223 0.7001435689444386 0.48916870830448256 0.22296967221850417 0.38574265850825584 0.20726504483771913 0.6695329450648032 0.9809715257856936 0.9664947712367322 0.05840409844864558 0.8343669855569475 0.7244373776361896 0.22329240366753322 0.6224526626121671 0.07575500151985248 0.07779402380542633 0.7982684016201317 0.3834133522864064 0.020985747521113818 0.17939461587923466 0.5307695265658084 0.5147449767716051 0.0886721217669062 0.24616053264119142 0.30153422213711534 0.08528490025112678 0.7900282945129514 0.5186622172425103 0.051819920234213 0.5847354887184031 0.5461287258862493 0.6584345329295189 0.6688438351349277 0.038674201577217904
-1.0 0.753139113492381 0.5667154332186061 0.9530411490768823 0.43376084469409526 0.574787795535918 0.32336268577590577 0.32518256638565846 0.3509404065266034 0.62574034638402 0.8291438631032952 0.1094064729776213 0.5664875763702224 0.06931457415460995 0.6770115318191093 0.2749808414829913 0.6987101573475824 0.21238853674548963 0.40779593071998876 0.011743642548591615 0.24683162056763464 0.7501759405785743 0.5782882699125347 0.05324141061041476 0.41450391158293054 0.8855329973341357 0.8643890077307659 0.9045266507027616 0.9970110706421397 0.6751771334422343 0.72727432883118 0.8267959300801738 0.7741459137619061 0.9180934651056893 0.4443842404332158 0.9900897704866186 0.18165863147396488 0.6824869381688962 0.9363235948781803 0.1387305668331148 0.4546234824050901 0.7719331066182329 0.5278387513491981 0.12667374139046672 0.12957790985838036 0.4080017287589921 0.7248570708676717 0.5820957065378535 0.6837655646373715 0.5047297146259777 0.22428658456280848 0.37083666752511957 0.8026084599320262 0.2831671551872198 0.63289281754389 0.03099632384663098 0.5958030413920099 0.2963909439053013 0.8630949965877902 0.9553762271607208 0.49914459585185234 0.07500161775174508 0.6088539688478791 0.31204942080824594 0.8794327627275155 0.7680228283371646 0.042921350183621865 0.45905329113416593 0.7212798340123198 0.7791388344423501 0.3642809038695498 0.7008710919023281 0.9992705659714505 0.03287731770615132 0.1031529002398246 0.751241421701783 0.9131924750300995 0.5858173285354289 0.46373635446302197 0.8957226109010235 0.47796745006971253 0.022294262520142993 0.2054811438695736 0.9601535060603701 0.5860129111508245 0.611503767066447 0.8844931441762284 0.5059083491374583 0.25483556503315674 0.009299388764307692 0.2703461321067636 0.6823893073941385 0.013563590519259039 0.1152925879558705 0.22385119170610268 0.29446027488284443 0.9469801516043065
1.0 0.36064837125551674 0.3401797415839708 0.16158335980263883 0.7974761359996175 0.4197545442445141 0.5410309806254187 0.2044949021074619 0.1635120863680246 0.9842951380612578 0.9568927723943467 0.8031743618021677 0.721638624480068 0.7877665106520746 0.16764711591520276 0.8415123084533512 0.05202772354998075 0.6206591374639142 0.7850007728512108 0.5188259573817767 0.9511873162199377 0.20151782656180905 0.0481183859888924 0.1726725075027743 0.6195183403151153 0.8747057985185823 0.9854871806152601 0.6433554440617603 0.9129244150251989 0.6720237568619507 0.7998146396912195 0.8231549105587987 0.7574962925580004 0.769897865125048 0.9809302805839865 0.2502372699247687 0.22631738342354601 0.45348911508427947 0.5622938734853308 0.17176803767253523 0.728821016762954 0.8270376507007854 0.1689817124909545 0.34968507117220216 0.4163853503536289 0.3369099326899204 0.9076139985173429 0.3616368905225117 0.312359655264669 0.19737255702371914 0.8002252533743348 0.5668678520766659 0.05406699353332778 0.5112440331280153 0.9049419015843035 0.48689333840657145 0.4823856056877104 0.5235796943613532 0.2388144635733388 0.9004629060960717 0.1398305887168948 0.1738409125167797 0.022259250628543725 0.39080941904577526 0.9048268521693826 0.9267208748795576 0.6921020237374507 0.7219507421061027 0.20019327252947328 0.9715584827504328 0.6189244826239643 0.33112784484735136 0.2826045388355183 0.4615501147284924 0.2824898294589575 0.15003095705707237 0.33860880344010513 0.25458530816262925 0.23146912013365772 0.5491732228120881 0.21447134967426018 0.4671492681804935 0.33385857301477195 0.3748279460150017 0.3671410273826815 0.06930581181639828 0.47457144221122927 0.6354923094636319 0.8139270126256594 0.5369999867133997 0.351953136800642 0.7691265421637357 0.8501819696272906 0.26022699788411274 0.4497332322093448 0.1438810570592839 0.0720708233544084
-1.0 0.7534071578401303 0.6479880699912479 0.7158880967584239 0.03337932156930934 0.6752575700365625 0.05147435328928174 0.2534678276844371 0.02754994559551227 0.3528829449968769 0.3828003648526118 0.2731234915210754 0.7868280520935326 0.012059002931801954 0.020678181946351737 0.6429056115503884 0.8046902181470025 0.680542317256907 0.11849449590633743 0.15941379966168778 0.8365730465234171 0.20787776846499928 0.6281776158719965 0.11581070673925609 0.7601591165236793 0.17661651062022543 0.3456894155879562 0.09664885405857171 0.3434082696490336 0.5369618894434681 0.2917971441769446 0.9987523070776846 0.09737567263335478 0.22275372767790613 0.44562371778403864 0.3248292305356275 0.3540411960242599 0.4072004437903346 0.9069387114585631 0.8418753501703446 0.11583230925687527 0.22574618789863554 0.8564319910032607 0.6085181096329665 0.10434610559106261 0.08528368344028725 0.7742956842414294 0.10244119382215788 0.5495658464776256 0.8255377389442481 0.31935399461528613 0.0631312685807831 0.8504957769731897 0.9965605702185978 0.010004983066505324 0.2465198783096747 0.9391274848517179 0.9500381449571208 0.23985643958101255 0.004821956545593142 0.4551347176952638 0.9747395262557164 0.33826025914532754 0.6159257035862641 0.04055441156736672 0.05448777346024303 0.9958219374672024 0.358934283370149 0.7462682726305161 0.6600741134070425 0.568420998770593 0.10744833846637825 0.5248337096101953 0.4456117118189237 0.2931196690361024 0.30429273162918746 0.43306447418174 0.35456692146836455 0.3913694666396961 0.0008509758181411975 0.5635614352814375 0.7648687314549997 0.533101974152817 0.781979783369045 0.6782860199324318 0.7726126948451908 0.02671065551400853 0.7599345156307331 0.6224084897568274 0.3340725136721012 0.44995155278748933 0.7917623111526769 0.8278839087734345 0.8428261826975303 0.5082646127063116 0.44936546896728624 0.4228174816748401
-1.0 0.36620118742556074 0.6976872105609315 0.26387560327933757 0.2642877458150683 0.15553328750461248 0.334783799099602 0.4809420347000877 0.5685289011178835 0.6660024119835273 0.7303273116868235 0.3703065083991254 0.35119323253125223 0.23843568981935048 0.5431365565905953 0.5552688092744289 0.5997843988299772 0.47170388426766285 0.2508830623418655 0.9552311468163031 0.7494183729987959 0.7990051774386132 0.34785591415017014 0.8212328802498295 0.48406103245405063 0.5879086371209216 0.8132524500016098 0.4244730845754444 0.3149200125849674 0.2803908752925792 0.8969361387028517 0.5384077836883975 0.25351454237129345 0.8524590626026614 0.38925752132368985 0.9696968551764347 0.18146157131030172 0.8804891519508442 0.7112399964384237 0.26931221594047594 0.18234017790998847 0.2892116326977274 0.7922948834926384 0.8337717229030608 0.11738418303408071 0.5017957741183033 0.58652415169383 0.03862939112640984 0.5538904877348517 0.39065225882257104 0.7195857700927596 0.019516488785488284 0.405022768103128 0.9966788455231657 0.9191744368022803 0.5500962668805547 0.36938033474201226 0.3059977707843554 0.18936837924179628 0.22541611017344942 0.4195684982702277 0.14825130083373295 0.0435864961469179 0.2133129890874691 0.8275766184913935 0.9921062832220658 0.18316906174396874 0.7507532622969982 0.5576495807237968 0.9193290841417098 0.4615898605806015 0.9142113634805988 0.5030228178645193 0.7558463970946772 0.5052414362122856 0.2338531338219989 0.6025861314987944 0.38229571362736625 0.11967675978122172 0.9368857917374144 0.5937245121523804 0.22363798709651628 0.24253629664449983 0.9824843116376075 0.09043355566660316 0.3651541393948414 0.5915633426578009 0.8493499089160563 0.04374555283222881 0.10211591862331615 0.38959538161920604 0.39872294503080974 0.32808985770156707 0.9040347151724297 0.10858997077990107 0.13155394518058905 0.12012747323064576
-1.0 0.09788759237533551 0.6772827114081993 0.686356855314036 0.4041637282710213 0.853845313866227 0.08573089593029415 0.47289166099806945 0.20552018158282415 0.6605322887408058 0.9353588945397372 0.40368434387583185 0.9308613336317445 0.6387645527099776 0.8357184603462069 0.11709328871884295 0.8939474426979547 0.18432777519740395 0.00043441262837773387 0.9534392639029743 0.2561479741671838 0.954633255061904 0.9862151974541125 0.4742868052256666 0.9019742297475991 0.980825595662023 0.007121328954261208 0.24625821798277892 0.5952195508586539 0.6679866288876211 0.7227829525143143 0.9513876000272263 0.40169311140373365 0.0771149731654025 0.31766335080882957 0.42288260588005333 0.4733413867591705 0.5895916623019177 0.5319947041255515 0.24543230538192307 0.5495423361010511 0.052505702807791654 0.17137694857759767 0.20050107546166163 0.11984359980228576 0.4027389602544258 0.1762471335181216 0.4179333853795222 0.29529538805604894 0.07214169478426535 0.4253487375348526 0.18406711767519035 0.6305700683058274 0.2536741588643543 0.29193494497978 0.14035438348722784 0.1363438053411301 0.5221013436056864 0.6249069549807156 0.24572676037668406 0.7648674312389806 0.33493630488311976 0.9551855286588966 0.6180814302117296 0.8535439761708301 0.49222845486368194 0.32210864657913707 0.4644329567581079 0.6227014369155647 0.5529396641891041 0.8560565372216722 0.04385589135256651 0.371970130233084 0.7657726624531709 0.48612634010028644 0.6641667240117176 0.1256568902505928 0.9304773045998547 0.21169709682626459 0.2704298430534573 0.9399274116322556 0.5458352507396753 0.861962268903679 0.17059321653900583 0.125092388763554 0.9536282715558388 0.6767098533916125 0.49433430506762055 0.2284814982316763 0.8918792334385321 0.28488054686048003 0.5759002539279432 0.4468877645428839 0.2836537445646031 0.6688053821890717 0.11602509412129425 0.5391573454040522
-1.0 0.5470617281427539 0.5431957722198983 0.0303670684740156 0.7479945263139263 0.4419590012372099 0.9147310163853442 0.24531817464286887 0.7937619597172908 0.835550864846046 0.637230840443531 0.843560573175884 0.2419732941299857 0.18743310018897552 0.25149254757019945 0.3473838093363224 0.6189653204851472 0.7466449271131901 0.6267581739431334 0.35818716463201317 0.4314254528766994 0.06675617117539245 0.3821043499662907 0.30195728879626005 0.587697649037533 0.07142353463212081 0.384681535343658 0.5356235705673403 0.8974991905490768 0.15604169185528383 0.2514183669555039 0.6191503171636041 0.29187721261660904 0.6598172312184478 0.9408687966195715 0.6727907478736278 0.564847509202787 0.3874339781917996 0.11932214429915444 0.9651804646709012 0.23829969074285096 0.889089439655959 0.6194423060154484 0.9733660828979054 0.37778525625796733 0.3785434678783669 0.2033665627566621 0.4508740514380668 0.4187441576586701 0.7847561102437961 0.47557897980145114 0.20969925777169485 0.29730921273207533 0.07092284558655526 0.7134799330121384 0.26342168482787365 0.29078756913470916 0.431636843251633 0.4458984960792757 0.18761532711856865 0.06560920906593637 0.8379196789962231 0.9840113257385996 0.9221968653639732 0.13350589997377516 0.3354589898350476 0.33751686462055264 0.6819562218738515 0.32740984860975353 0.15716574961937413 0.7244796877261731 0.7499428812477557 0.283809029583063 0.25845708541964285 0.802030157350115 0.3825276371340992 0.6148233191248654 0.3416350478347596 0.48045304462487726 0.98230620618937 0.41895237301504595 0.6494469663628551 0.18696433803446377 0.9964279578740507 0.6459799815959664 0.9538251053253439 0.4510796594557206 0.9148133820677432 0.4911472400515946 0.8306394055001015 0.6592150216171466 0.4027067512356237 0.5470935002949286 0.9090362882157623 0.4792413326190488 0.953238283945134 0.07576743921619244
1.0 0.3173413918854857 0.14874353174805244 0.7115519738693609 0.055339347821072526 0.6367865317435562 0.38762980466881836 0.04970135066037862 0.2108810930476004 0.9018587756683081 0.7410272516407078 0.4327028423216618 0.1339672956390956 0.9228348230122712 0.42949435994969853 0.7336146109309373 0.22511416720234223 0.2558297422598709 0.6715470134632517 0.821882551760903 0.05794827334093311 0.21215075930943517 0.9467182606021631 0.2282115847998477 0.9475218545165967 0.021950666713126288 0.6703458577003385 0.12584704531890578 0.2309983172273974 0.10096700893812283 0.3272024395206571 0.3243677729546398 0.7568176401652326 0.4948698648186194 0.1821743623140839 0.6652180532167281 0.4207223265250045 0.8019657636168205 0.752788784139851 0.023035770517810805 0.8453966103516627 0.5599470721716975 0.8380942214965048 0.6535483432886466 0.6993611119497467 0.41256275308152923 0.4715142842638238 0.025813756268812105 0.34846499010170173 0.6129670190160199 0.15177137560997978 0.9814786020413921 0.025848139387126046 0.5189494751986371 0.9314037345632897 0.4360401541096848 0.06078740507429092 0.4756405714925519 0.858436220925656 0.9493562560430299 0.23165410954483634 0.2219681814152642 0.7011390922240064 0.9274429613087571 0.6358635986848066 0.11911391945361127 0.192582768412902 0.5038825153928486 0.19439385384088115 0.34889066021721205 0.8717494697190503 0.9648201204855157 0.49643712827654973 0.45493158530944444 0.8555933998627622 0.5854364897535158 0.021124206196098005 0.012311122056110402 0.08566254867117051 0.0306621868317839 0.5237422182700052 0.6913925583503217 0.2512416956843415 0.7188342134718159 0.9093640276323236 0.006202336246424411 0.4211446800652294 0.6818634368260432 0.2765925175378616 0.40033629300223816 0.27545081781514014 0.947187389561669 0.6296425271446863 0.6693111592271817 0.31723159172680226 0.7837260265864232 0.020033332525536518
-1.0 0.4383159093211805 0.81965858891352 0.6593526217413578 0.10980263890767816 0.7791779186748821 0.7187023948766517 0.43260504251948506 0.13310027720040296 0.3786291167635747 0.9406678740118123 0.3839532704211098 0.17682460692431823 0.7933942092940605 0.015113529588651642 0.9440812110410116 0.42371240435606894 0.676584452379007 0.270422936557442 0.9269912594652034 0.7787669730497078 0.969726167804386 0.6764265081538735 0.4719302732871218 0.21628954635473152 0.983412794979737 0.36752997577879987 0.48401851795468653 0.9189442857667065 0.047305993172078176 0.4946997261173578 0.6935003017026696 0.024687080051357557 0.9912353910671255 0.25680586583376064 0.8479988678646974 0.2676249285008848 0.006493635302946998 0.3295244494907158 0.665639986211405 0.5664113684791606 0.9289553827698308 0.3936555516155209 0.8635453091020762 0.6848474609024875 0.9345558786259647 0.8792189807749066 0.47294241346394605 0.8185597461112791 0.2802061864533433 0.6170599764180463 0.7061428156725995 0.10143673097553063 0.9858717516458942 0.12472518343427763 0.3262655019342715 0.8112144051909252 0.5208625652657639 0.7687811009296766 0.24089593223482653 0.387282885719912 0.06172133696541171 0.7450653256077726 0.7912424826326085 0.7671494846479442 0.3671154890037025 0.8166995057898225 0.5900292960296599 0.2811102694931682 0.778825272232452 0.20344062463987544 0.13613660832129926 0.12975124417921335 0.9022341174861523 0.20257066613863972 0.23146007417168046 0.46028518962311193 0.628915282993816 0.46476831200956636 0.4502161766264864 0.8182255880411848 0.36237479249681126 0.9703825012747677 0.9972635042594452 0.7499926079875185 0.5184067955441728 0.14750672543686683 0.6405806497399011 0.8239587011908343 0.47693189022201854 0.10808350476473783 0.48679764744967224 0.6576560507195238 0.49651102790356383 0.16829937425155272 0.8258345335330058 0.2546483431546337
1.0 0.5623669606693056 0.7456905568838909 0.15116830564807526 0.6373808385445818 0.8711748623592388 0.8287695209735262 0.20197645329040514 0.31371413174486973 0.6454806418604933 0.483605176942948 0.7649051712604845 0.092781100599866 0.28415117379277244 0.5078158447298173 0.22059068923446934 0.053796209571472686 0.26642323892553843 0.6291445857710422 0.11777679340288194 0.3410966087339261 0.9735720475672003 0.14945693784233305 0.4043612765023442 0.4952375725926368 0.5085949632073856 0.468915896748616 0.8412604001446229 0.14773573157343378 0.7111556534588743 0.22445962703329048 0.661771124392853 0.05361678950305404 0.34709083739274516 0.35320278835632246 0.24234397710586042 0.19584825468582734 0.9524971362559523 0.6326879841734219 0.026412696270183056 0.6614086313638498 0.9702071097418352 0.51920231861241 0.4185279473379411 0.38335912989610343 0.7521851243494222 0.6535873931854735 0.37241901433747293 0.46863300724267787 0.6047329960959472 0.08294134096555306 0.07186433086408794 0.09295762846575772 0.5191111907984581 0.9897176007735083 0.431767364216211 0.8146971029214378 0.5165068535346867 0.4842923686405234 0.5705408234101288 0.7061560283410239 0.31491130716072335 0.026815613113456482 0.3900313182228864 0.18861272724818878 0.5287381922533747 0.6130376912106971 0.5646988994517836 0.7407616787802433 0.9914953872169109 0.9860298278022706 0.567146474300409 0.9702854151944582 0.395987501249089 0.05717639046598377 0.7088863476366549 0.6252042447618885 0.7657520406070636 0.28518595257664003 0.18563038704451684 0.20109485689323747 0.3636668249068391 0.9634099457526627 0.3422316408341213 0.5017213341562693 0.6841974586074289 0.26444854264258155 0.7618749951938057 0.5529152194799608 0.7590551374985686 0.3847403897324655 0.5013498578968109 0.5192126609085751 0.3087460020370074 0.4195687385923528 0.8454002359734588 0.2420988988060908
-1.0 0.5519963563402469 0.8008827618497174 0.5893242707442468 0.07173515257250185 0.8560134627611617 0.9172350889123481 0.7610198697098518 0.677236409501694 0.7619880686877717 0.6000235149000508 0.19564840922033044 0.675461560677907 0.768913320514313 0.008922284118480728 0.9545394426257354 0.4259784171724803 0.9589865360214802 0.18318975260971204 0.06346020905240057 0.935932825157211 0.19373871600210868 0.21075833226524798 0.3230148486629064 0.4915193437781654 0.3909289641693109 0.3994940596070845 0.7877833108531214 0.5221407557716445 0.7613231218684919 0.7620282391274769 0.4903165602242566 0.20085518700037175 0.8333401166969383 0.40198110013566124 0.38656139796848654 0.892045245421972 0.6470485080471813 0.7813537985263096 0.19140894154290733 0.702105797778989 0.3750461478075058 0.08310466762953872 0.01104516779779352 0.3045738454870035 0.5509035251814132 0.1498269770797166 0.5431911859415581 0.868192040001156 0.48869676315528876 0.7446619309937905 0.6117167982991455 0.11929224131265004 0.3115847315485114 0.20104311365458238 0.9008473285895005 0.5447138656058406 0.12588177786220556 0.05906125908254878 0.5526722155610967 0.8365191331186561 0.5612491645254107 0.4199188582223343 0.08541714943662548 0.6043575322572555 0.05370914452146214 0.06274760131102419 0.6758680348090055 0.06816281951163539 0.48560197214950196 0.6019408288874628 0.06406789242403532 0.08050288451012333 0.6514935250416864 0.5274419725544109 0.5090474930350297 0.6352207378250109 0.16996532388237884 0.613435991542136 0.34095324070354516 0.6559296452756614 0.5464134781098254 0.675480049762474 0.9104476751230058 0.6067522046139101 0.20907195924161048 0.7792839059907373 0.7408074481973188 0.49255376761005476 0.5391351297716296 0.3424744713103527 0.6428898370814441 0.33965840185525475 0.9870138280501324 0.0752816970334158 0.27128143725511744 0.35312550529500863
1.0 0.7323891818350516 0.07533020420081193 0.8264248992268878 0.24213234600210642 0.4216043395305993 0.6410943050022901 0.7070473279899061 0.4972897271789958 0.8247929626807894 0.7061693346426388 0.0859222234590804 0.2358518369368725 0.7099164566342203 0.9391912867172053 0.6719296095766256 0.2177467800334375 0.7650052051962314 0.45535484583177355 0.3704750531927049 0.9925470891412955 0.020038112329532454 0.11064973668485412 0.0005613830848231194 0.6929846766134928 0.06958357462474185 0.22264413849785902 0.38361080565633077 0.9552474116190611 0.9958655217376905 0.5816951960466193 0.18554288862801505 0.9422067350770379 0.3352054681414487 0.8521978660888496 0.39425019206085543 0.683199508997395 0.9909534389142105 0.593047409216059 0.05736527280531423 0.32561540154532176 0.21078514018059002 0.21477247262099664 0.03303540512615166 0.3010583544124681 0.7261871101436222 0.5075666008577163 0.795276335447203 0.8526818869592018 0.9614418604154952 0.18059142407221496 0.4060519821711296 0.0627163996022636 0.9435962094344691 0.6172640748804284 0.59812192060395 0.581710579382678 0.7026555702092819 0.5015686630054085 0.2305729221101276 0.8041478595116359 0.8107494530393025 0.6545930996962812 0.64936003599117 0.5588639928595475 0.25328411360552205 0.2576467715294023 0.7921773893462314 0.7822048810746761 0.5796041480118657 0.21142795802959113 0.34000698088294956 0.08777437330829319 0.2873109396758633 0.8799189097549739 0.5777079476753013 0.979385959855237 0.9948558010404142 0.41349512929708054 0.05340372148551431 0.6861319301991273 0.24374255179340043 0.8526002619881254 0.8258527351001657 0.6237201057538853 0.6237813792183825 0.12594175505436322 0.68785546543784 0.6215685083521669 0.8336927954916195 0.24415377429616392 0.9971936370119154 0.1282361842502927 0.16609230982589662 0.1803655123396044 0.9642689960342382 0.1544812548269372
1.0 0.8004945963814875 0.023067905061738947 0.7653189859095298 0.4041165715682701 0.6515416677940069 0.3652242566623862 0.021320843960070612 0.9948347205851839 0.8485166057520895 0.5760858639879027 0.07731908517724329 0.12805998668303564 0.9896205355907005 0.08727380904247939 0.6031664715600444 0.5430679860554027 0.9739161215859296 0.8319889069665416 0.46213338904433077 0.13001849865205706 0.44839479474820976 0.011857188088582049 0.7856255386747812 0.17612390478394202 0.6748356596784093 0.9535756644475415 0.42714299423940383 0.9072778580112629 0.6397163846529211 0.07242786256289169 0.8282981909693782 0.08446979718955872 0.35735274552657215 0.5774361911722102 0.74574576557309 0.5104556500132493 0.26456571864770484 0.9163071408499242 0.7476507469262091 0.9760814991207878 0.770665541152216 0.02573182588314238 0.3184692754035494 0.02091717334726495 0.09515130352360324 0.11895242206285961 0.6336042147411348 0.9999652164863072 0.2639736169264302 0.4115485354321753 0.6920069730738293 0.05531317065591401 0.7561407953763771 0.31039677776688923 0.0652256414700223 0.9643317187039986 0.042366864991476905 0.3505347573904527 0.8096889444467854 0.0392776661531794 0.8842496295984369 0.6121863887701869 0.4842920866930257 0.630214860938447 0.5177434225304991 0.35715276211666525 0.07077668086341948 0.40887870597363574 0.4696403044940133 0.22905085926567514 0.8511161035926507 0.8647327531427583 0.17102927158434755 0.8840617014834417 0.6981747772656834 0.9701877226307523 0.014735717877956134 0.45368671326428145 0.20158995315454442 0.9696252934761196 0.4575338974713743 0.7781799962102389 0.9627458284353577 0.7360617730144976 0.2821902703509752 0.3031936232279988 0.9629221225502665 0.7933373095402679 0.10756354960243042 0.9063422312654409 0.7601041478185242 0.08962931019982823 0.10917546543029111 0.32999182889227807 0.6753237318480164 0.46889923697881375
-1.0 0.5154821828470928 0.29427317723702584 0.7214941375975995 0.6278815927799841 0.9818979016747457 0.6370171736045959 0.2233735525242284 0.3699354017231211 0.40704052592008366 0.2613789872480694 0.8558059756598198 0.8438888537333283 0.003988067519850591 0.8217855779110408 0.3881451153814567 0.26874269570793097 0.5498545221297331 0.3526355508004011 0.37684940249083543 0.6554426817323239 0.2312999655716531 0.1594687957572235 0.33306323052877806 0.11878296556529566 0.30356450797333434 0.24365711467145168 0.7520384945088352 0.15666062653348434 0.2749924178600762 0.817832651260131 0.7879230743041714 0.6495662335156193 0.7484775986413444 0.8910837265597273 0.7557686321754817 0.13309292234239956 0.8740829476331111 0.8039598330066816 0.2550228028139686 0.722969590727656 0.18412661844778455 0.329831421542371 0.888100540901188 0.4551756986885298 0.9235590293643043 0.749794831094222 0.7286976881856329 0.4137751008833179 0.9090270398866597 0.568895451556255 0.914050324581471 0.2528657371379378 0.09734849195824102 0.6573478023044793 0.30822394397138075 0.07468107572388394 0.018368994802639094 0.9721723174439495 0.612028257428323 0.54834473946896 0.0900688911730515 0.5306772076474132 0.7621679820661801 0.4186539556508262 0.06755287410849853 0.037611272656741246 0.5595143411345265 0.9570163547922504 0.5678984450082945 0.7466949122548795 0.759614780809841 0.5948481830116304 0.30925667448310445 0.26872250823281185 0.9513295713867949 0.7732483715591479 0.01395350803993256 0.945286198456351 0.05456840406912655 0.9110764504504939 0.3264331126325186 0.3559343491168744 0.20954843774123588 0.5316127321460801 0.43131604754143593 0.8044085855864354 0.7317010452344387 0.5675453413687768 0.2333277360849796 0.38596436612203466 0.6017049188387641 0.9526696312279178 0.18100953763454186 0.9977605110654939 0.5757398375211047 0.838065013852196
-1.0 0.6248009678298874 0.8974578435245051 0.9517842448386773 0.7611946594744731 0.9554299962288287 0.29214163432423956 0.8412500816689106 0.6993086968979564 0.6454026258073955 0.5314804116432523 0.6905772927313459 0.8498138563242741 0.06779950764050768 0.013869952508214323 0.7961462034191643 0.6576636899535048 0.17333842155789003 0.43034350713774827 0.4744858251016484 0.4494880550120486 0.8490225233815666 0.8251599683268601 0.17497240273006442 0.082692339681258 0.3624575929774839 0.35853329199525796 0.2820863997972637 0.30741156112650636 0.3737036101809891 0.3428214052296972 0.1271486247422734 0.7366115756614184 0.9232949036204666 0.26102660808219136 0.6079445190706133 0.8802716511948416 0.7214619074242494 0.5143571520947526 0.9635159691433526 0.9738095513988341 0.007170851321448013 0.5678289556394479 0.07416477337234195 0.3285518889046123 0.6558456324325042 0.6460994075689439 0.6534538424390565 0.1899901010838415 0.7401333242298689 0.1975330733100905 0.9769796473871056 0.410829566460146 0.12180633557994891 0.118014300189202 0.09452497084493405 0.2517988850950572 0.6293344792752287 0.29193994833776926 0.8402596489265552 0.23453734493023504 0.9651698317756349 0.12465602100513717 0.8163577454233355 0.7104267883184934 0.7520271892673603 0.9117393424004111 0.4873073488176196 0.06613088182863402 0.054884822194064764 0.0028079761239450107 0.09026521955280209 0.36017802377847064 0.37016977793317696 0.6336082583331292 0.830992992920574 0.6028103224201015 0.10372551315375911 0.6565821398031096 0.4076464669705615 0.04182901243532067 0.11653953624283797 0.027420167250104877 0.21677826493117902 0.8118830438130733 0.9445755343700092 0.3671279495581864 0.8598841784157051 0.8233558868157177 0.7892210028297579 0.7648587547391212 0.5389658455730499 0.8223936037837487 0.39349979106810784 0.4532701133355179 0.14176371380926733 0.1279695625831393
-1.0 0.6111032830320169 0.3722723800521871 0.03214859566060646 0.37905740628999385 0.5403633318150625 0.33988030369028444 0.9914108368102498 0.44731383712188155 0.44018723995989906 0.43617493609039204 0.5982943246444291 0.09567487375224115 0.12000606448614348 0.8309378675090375 0.0375406749052829 0.3541711975711006 0.03469469792898938 0.6826010922925568 0.0437935101905601 0.33080152586203015 0.07756336596026514 0.9084468985117629 0.9342768614164094 0.8691243158185555 0.17159132346517636 0.2361795457678565 0.9684874427515058 0.6726552070043147 0.8307497748560903 0.1829578635487199 0.931932113095588 0.6002628872898698 0.6627179804141641 0.7370449028747905 0.3391431385802818 0.14591129299366512 0.6604320699585157 0.35942688225381636 0.2591032987163524 0.7432110772700542 0.2433785410180198 0.816457830836196 0.6201847338164943 0.5121878705423522 0.237707752636526 0.38877295046548954 0.7617696268920184 0.9474599431157316 0.3199642738448554 0.049143783201491376 0.5361037535339191 0.9047423017510775 0.6250593455762049 0.239130043176498 0.770687889658862 0.11349879582176492 0.9660914000203764 0.6834996950226013 0.828244404392776 0.13868130653051713 0.3930925176549396 0.9509777329886242 0.9502652545100069 0.9853524856382878 0.9539838000512363 0.5743826024591726 0.7564352971290322 0.013135874316797191 0.9793717189813123 0.07835014292954301 0.5819981051459335 0.5107341626585077 0.6988436322943178 0.9346387501939594 0.837462356147736 0.5034463462866046 0.5425002497935412 0.1585923200212066 0.3092514961919639 0.787736505976552 0.989213557444315 0.6103698550546992 0.9468403807070068 0.30289650061149487 0.9237680020304959 0.846407274394708 0.06546975382208164 0.7428564470804359 0.9705870957374801 0.3857226120731212 0.4461861305978504 0.2586391191544929 0.32220787102082726 0.15748291658203006 0.8760297897333856 0.2937436739350293
-1.0 0.9724722303660165 0.037933806499459766 0.5226010888420416 0.14215585305611678 0.6146889172529629 0.7185426382782877 0.31896029115887503 0.30415285715208973 0.6841438796898716 0.5550656447532213 0.7898041418206949 0.2995760852278605 0.8475022660799103 0.009451409844254077 0.2988185443384812 0.3432393514629227 0.58610907633035 0.861208217669239 0.3453721452014684 0.9491098458203711 0.977731477690733 0.16907072848609594 0.71724006990112 0.2974010140001053 0.21643502361379763 0.018845319960638873 0.5198789408365492 0.9690333625555286 0.7717428215473457 0.23159994712945353 0.7701333703301797 0.2696218227024473 0.834206810208293 0.6607271025933039 0.4033007670569472 0.2992490243063758 0.02673310244290894 0.41826648965606084 0.04014647176418207 0.9429813641763464 0.050013174230366 0.41949526462653597 0.29309919350853764 0.04325003227900781 0.4951874999580983 0.3227103258859543 0.46768230904547425 0.3694662858133412 0.6262723007475914 0.38924958178748104 0.3531904505359591 0.9919018997302005 0.9847654010948902 0.3710560088832041 0.42589158359761725 0.4998556844165878 0.5509647549747991 0.48120917625323134 0.4843050504147295 0.4052945913884115 0.31584663172842864 0.8301982224178035 0.31293439592527106 0.573428676798746 0.16087558577031857 0.9215766437075402 0.9420134629850779 0.5847909988947729 0.3698201335575104 0.23481105997207874 0.5945465426358209 0.6435267734776926 0.1378881676759961 0.4362616445106652 0.305547186867574 0.5890151191937842 0.3084443324811629 0.08687441875093227 0.5389631426347674 0.35600227423123676 0.18840615296776353 0.5170619091671742 0.09966415325324496 0.6576182901601382 0.06913394305740794 0.09740804175631967 0.8648342354056878 0.12949975579263762 0.2614979454237194 0.22009891177947394 0.6753716686868443 0.10470569130743024 0.4953467383021173 0.507726500369117 0.4848074408549463 0.5875194968128578
1.0 0.9860521223690641 0.1523275598560897 0.35315333592070564 0.13589698984746823 0.3721374757847349 0.8498668367971294 0.1870331528107796 0.5365799485616265 0.03224231185753823 0.9947001490006453 0.007010151110020679 0.31040402674873147 0.9358769443509702 0.4842966605494101 0.3626094928172301 0.01515897590925841 0.5900992368789627 0.8657103366182991 0.36395587444807265 0.8182015646963651 0.6282480691739328 0.06795153065719206 0.40838392601685947 0.08325744752490305 0.395774083819986 0.20293243915984538 0.3924881724725333 0.2294854819326383 0.2003872134702539 0.5535996313227196 0.34308314474506585 0.9484921169461243 0.9501535243494621 0.8937965257492972 0.32053196310921217 0.46062867495107185 0.5392407663396287 0.18743286686020577 0.4871806962942783 0.9060073840874622 0.319994805581549 0.51419512057686 0.06007552890393719 0.09215183134279037 0.563264685068485 0.24771498691969784 0.2788967973547356 0.4248397691363641 0.6018156113533848 0.2221894396887416 0.43840757121909246 0.7880493311756459 0.40234133830882557 0.8804450632897312 0.024020069555927726 0.13060538837211844 0.06428990419059266 0.44134430781481493 0.8285403987435753 0.3744603972185394 0.6838191795804345 0.636947710967687 0.7952199899714227 0.9842523601605486 0.004595063921695286 0.7713505365867835 0.7525734972028523 0.19096561300136028 0.012335288181846482 0.8904473113485447 0.8835860171242766 0.23318361140258248 0.984639164587665 0.42384892793271134 0.24205699831923522 0.9081385471763025 0.8108998907124199 0.605221748896598 0.06367007221125176 0.4178989981322052 0.2009033572313449 0.07947027910501292 0.3861423018301262 0.6025058648917438 0.7846790536472124 0.9504990273696935 0.32882741797750736 0.9988296152844236 0.20980103232107628 0.709526949933182 0.4379536166935999 0.04893423060634727 0.33017534623512124 0.17187948696570476 0.6253320050513086 0.5660540802389319
-1.0 0.8234029002474207 0.78355978894656 0.04458059463455388 0.33099951786035087 0.17817230802125372 0.8177979811410249 0.5000847803700086 0.9293334249188283 0.13726921031127304 0.1380471202165935 0.358259176337121 0.6461791934037227 0.12935442760255222 0.8137539656457405 0.47902907708555176 0.7204137155699397 0.8493741047187393 0.41745153991201345 0.38772563641682367 0.19018087017427554 0.6385863907293129 0.23950891627657955 0.25743951498230355 0.020175822772670382 0.10029847101546652 0.15328201745004655 0.14440206297411695 0.7513633038972668 0.1730560818628588 0.17920629789315878 0.4672814709407065 0.09613842283677076 0.9117597962082113 0.9880114871422566 0.9089107589960712 0.3220881342747638 0.7552437497585265 0.6085106198098822 0.8601942169226887 0.3911082683525233 0.49300239591860484 0.10111974063034579 0.6500229992089954 0.8603193661651428 0.07320579985333697 0.243241256840244 0.18906229371007044 0.7159067445739833 0.8364818280722577 0.2603534743166179 0.6609907361237849 0.6089651124571537 0.7883360838480212 0.8957315046710516 0.44262801489182446 0.6856965495042161 0.12785905466336678 0.7753566195741225 0.030148868028793796 0.7062238174972341 0.7857855920269169 0.6984694160334046 0.3551175994067418 0.9597147565430241 0.3067129899275005 0.19076037906896548 0.4783773915881593 0.8858876682780971 0.926920583956276 0.7263305526493428 0.7336596421994322 0.9495042976295491 0.09839980768402667 0.2786969637625447 0.06379231652114836 0.4050149520080937 0.38039392510730163 0.9816067439655083 0.49460070548598134 0.5385200367292476 0.884563264656353 0.5382525252811382 0.45138559625894414 0.343798483935854 0.318271677494508 0.4040456103991549 0.5216956005989 0.5876114607030137 0.4476419315047315 0.16229715017720536 0.6114751017173082 0.40649255348454194 0.29832752480953584 0.11196314791967987 0.3218611695993838 0.49335555636881456
1.0 0.16232343158646423 0.30628900711579565 0.029332180983800638 0.47075212641559494 0.8179200639584634 0.9099180558439833 0.9656718393471908 0.10538336136581816 0.7230334015058536 0.6583132639656273 0.4744851487001783 0.7610663382698718 0.6439602192667365 0.7215282881199935 0.6427117652861927 0.09213608595858702 0.6823827800961855 0.9208495028855933 0.5797813144308218 0.706938878272764 0.06489893964972504 0.6535251276112141 0.057925422432392626 0.569267820117359 0.8122615806460772 0.7707397855495093 0.6256300924242179 0.591806638168439 0.4370608252586853 0.6537032722364121 0.803427332314669 0.5054456921377507 0.0310782371994206 0.5724105594807016 0.2776584814311559 0.5931183741814099 0.7627523017048831 0.8328221490793535 0.017344435918033918 0.6523971165141028 0.46645380503053124 0.28276754960627815 0.6108421069432999 0.26750369388270756 0.18080192553638297 0.7823846331598923 0.49464773709719156 0.8211798842204515 0.1256471615374466 0.3370380909885562 0.5423775207543516 0.90020167686433 0.8928814180425395 0.4279614800410947 0.3084857304750913 0.42555366204279044 0.7147622491989428 0.9356776984564555 0.7162569081959276 0.459472848185287 0.4008377280656168 0.761588104698852 0.2019257843771871 0.4136729824645017 0.12681844810706144 0.9660966979325665 0.49824813226822684 0.5142119777580385 0.014006841412496085 0.5662004692581345 0.6062384872769306 0.7696444352758509 0.2539111528583007 0.6681610072691154 0.09081526133964268 0.5339227000237305 0.09654617488687345 0.2867367256273582 0.23310060595228532 0.9625892242857164 0.5985452347713712 0.7398934123806244 0.9451629820257996 0.3395289550796411 0.10694490776972654 0.9213009412331127 0.8977691271639234 0.9506749002613815 0.3624767701678222 0.9940616673205986 0.27439026463057825 0.09192305890245478 0.14865910797785997 0.03377924027019796 0.6685772546040957 0.5841012735555309
1.0 0.8946227073470454 0.040395199268101645 0.6590164179886008 0.3055499961062482 0.018670719110059797 0.6474512563190377 0.6827262645662638 0.3968507198867738 0.7278367487375547 0.6646854956195618 0.9076057783663628 0.8827822592231185 0.7706236386211995 0.30851704634703636 0.5541427829904442 0.5613315463765738 0.367044863907125 0.2486885926098038 0.6074184823546948 0.9005995804454131 0.8595950649457812 0.4731370586114826 0.35491280483322163 0.5145348410804688 0.7979463599969067 0.6575154586218105 0.5940154257144363 0.7512283179902496 0.9346695137049769 0.4299146391169214 0.4057964962372115 0.007387963937662501 0.41402867672290944 0.8256177772461819 0.21556325019939926 0.8465478455158192 0.5975933341189609 0.7320226323216629 0.8898973107498718 0.0016042322435444456 0.8753408387739978 0.35335115124666994 0.2130085783884138 0.2639201994375231 0.261302481750075 0.684889921848502 0.9257827760058168 0.5968452703666975 0.97348652501359 0.8382813141526341 0.6800451415043585 0.4918837465245439 0.39120328343723887 0.872150189408908 0.3760355961825177 0.46831589132179896 0.45017706795824086 0.7352519931572054 0.45080985445154986 0.8084349661824312 0.5258850690838486 0.9792466545648721 0.037651800244927536 0.9895367572402497 0.6111135869908754 0.5282833513901967 0.07908378294217899 0.8044373961015715 0.002780531364844463 0.7519181948587931 0.846863398184866 0.9073842313433215 0.7274497152306404 0.9957853499240233 0.5765903595055791 0.29198119000644396 0.5868702911136225 0.02211254901650972 0.21988163239213887 0.07460110993182245 0.23000605339540325 0.3074896044607637 0.3441676123465762 0.7515063409958367 0.07216930169735036 0.09736430372512017 0.7936148570028959 0.4871697994789804 0.37042608500040564 0.34959902377130114 0.30756426678142135 0.38139874914547744 0.5617003377574219 0.7167558098941308 0.8815912113754497 0.7851713234854287
-1.0 0.12753596659825428 0.5677894480425564 0.049239303875013296 0.5832824144283419 0.15550629717424236 0.9281169322980449 0.4975258322176458 0.27784200996317365 0.7691258047060212 0.6387387597962934 0.31046602288317116 0.9339147542744264 0.6509997998786773 0.9617119331604581 0.7268561615995168 0.8336798565757093 0.8066516476134129 0.13828814781203436 0.5118028721222562 0.6235610816623296 0.43079362754780115 0.48214608698223926 0.21119798638787535 0.06838281079756481 0.7581670442781199 0.316888013573713 0.8190429576331085 0.6526133715088578 0.7548439367651395 0.161232684779814 0.5246066255463567 0.4904109373686347 0.8764641523422724 0.18073552291117667 0.7742875084064778 0.24747917834040445 0.2061069438834695 0.14097159614683297 0.3042216905980284 0.3799143982104163 0.11747811724266632 0.8898576798830764 0.9140882039210678 0.5802056723210705 0.033461062339869896 0.3722416447507806 0.6260081579838653 0.31833615050269115 0.4939684664435138 0.3525931386853741 0.7853444151370761 0.5714136253545469 0.01202160773423222 0.31113964555873086 0.6830997727096892 0.7343681773034997 0.1503796031504383 0.2544182521924928 0.07203518617357052 0.5114411104756661 0.5422383687309779 0.9658136976340793 0.6078364609260817 0.9139796235258291 0.9385304762854539 0.31810685097323577 0.29797437329709875 0.3518373037317827 0.04867804266185094 0.9649123707304897 0.5230262852390424 0.042456801424981205 0.23094423134896502 0.21076057412010663 0.7894079269502786 0.5754608557150948 0.35036584062629483 0.2864389882114351 0.7921946115866396 0.9883939524544034 0.6092157766651631 0.12689825725112724 0.07584757209296922 0.10041758791880051 0.8328355263562337 0.12059889901599108 0.7559229109693283 0.06400973131091436 0.8846833458026183 0.5155859251202218 0.09669171093387186 0.34221907336268187 0.30243834831216077 0.7380412137000218 0.43347089349480605 0.0026869087569491024
1.0 0.6057303080703837 0.4385194125730808 0.853113257651273 0.40032019100067595 0.5821449194936946 0.6004077057502728 0.3648055396157581 0.7994523172028567 0.19072151027169493 0.22908401868724937 0.47374146967276665 0.07008310412524354 0.6827460392641173 0.22188796430953672 0.7231810833745331 0.97165985472383 0.17627329340507192 0.8409605013109628 0.9661528692974815 0.8528954053545866 0.18506467659844839 0.35715384535444816 0.49232957420911383 0.5313740853955649 0.7140538449511323 0.07041756686669276 0.3848342153229799 0.061433810246809606 0.21230022973009866 0.3417826694142275 0.8599106311273325 0.11331526741293385 0.4752432578297613 0.8100628707479411 0.782766929591787 0.2880695425139467 0.3272075381757973 0.2630032145439043 0.3755568622145997 0.5927599471261656 0.3642722625646405 0.9888715447477422 0.8458674766717527 0.5461857339904802 0.8738753782269775 0.828164297820738 0.3057364498168237 0.4148978463091616 0.3670153156032683 0.20303677959478283 0.7160885918794754 0.8714202010794386 0.7721772723438606 0.8265923961470876 0.9005766422900792 0.23614962147068763 0.4631896407069943 0.3620271373921885 0.1254927051941278 0.5718527938427136 0.40992316903175563 0.8725005218502156 0.6315006212831592 0.3841096211909667 0.4221553890251548 0.4839598235369317 0.11632954745052926 0.49797972102742005 0.9603371452161026 0.23090553772925437 0.4357933078706737 0.3707228425393605 0.9110030340914115 0.026714859457830586 0.8793085404595656 0.14729448556265468 0.020350969435653843 0.9832151967364456 0.9787561426642364 0.058149426293694684 0.4289739820227272 0.6250739647931575 0.3557231203822888 0.2569912910184975 0.8753877733722106 0.9495525401716703 0.13463984701920872 0.010601192123392167 0.1731610113835944 0.6620660541325893 0.7848828877609321 0.20627056490748752 0.13719820100031876 0.6154422314486946 0.03125608994814977 0.4527703072676371
-1.0 0.13488514999654988 0.7623199087257572 0.7780749262665289 0.7785121065060523 0.2503612708731614 0.4638164168890869 0.8255926844373173 0.45497823752892463 0.45777551119835436 0.5399062206570889 0.18453450092240642 0.16836821586322104 0.6109700103294058 0.4447562083936789 0.2519103846511562 0.6289134704834766 0.2545065041085196 0.19323102048137963 0.3750649869857118 0.0777014324635974 0.1976688199931912 0.33378613319940076 0.8468105548467425 0.6544288067881187 0.47121693513889285 0.8219214746072614 0.7361722051144836 0.31284284008648333 0.8600297007987504 0.12034019375640637 0.16297424040919994 0.9828457648668097 0.18602365921016029 0.6768885708640492 0.33706372014932817 0.6580954668914195 0.7341715289664439 0.6998551078610245 0.3294210115838093 0.9701893946614756 0.5607982693630401 0.8639689996888471 0.9746862606501125 0.7275327231317011 0.3502332543111025 0.4655538677853578 0.1636062925314331 0.461747663214891 0.47687843743967495 0.890913487878438 0.06862173160713037 0.7869610073984983 0.2733954807554234 0.297172835950563 0.49243965693414615 0.7766965955719024 0.9339241020676571 0.15745896066549625 0.44171292958374275 0.8218782508291043 0.5387691725537271 0.8820043829602857 0.15454179379983635 0.03770533581152269 0.38815075320712666 0.6586219231187401 0.39175796377066163 0.46683198300287787 0.6932695644939153 0.06204336445522385 0.25915700063819536 0.6433487105076334 0.8964335415017471 0.35909766964051837 0.6632734826455721 0.5847508804041949 0.11399550836626338 0.006016285937032628 0.37598063380288926 0.8343657521744859 0.21393844783441618 0.043329638087825195 0.834293239813047 0.647821326854504 0.07541354224350183 0.04496918949455453 0.4085543277723741 0.5298708998336182 0.38130504760383754 0.9632839519026225 0.9515514498923073 0.7464981937025307 0.6885833083023075 0.9689111130406857 0.8655656903033311 0.12651084923085987
1.0 0.9876106206441424 0.29403824305347503 0.6292644462984658 0.9115118092215535 0.8202845800661654 0.6557369878340211 0.2716876878526492 0.5717567702099724 0.2453801623741978 0.7113855661134154 0.5069099140961114 0.44882348296484587 0.3229145349099797 0.5617351576807365 0.6353936939168621 0.6068505365285665 0.04208236618018579 0.08221758667408241 0.7578102602748841 0.05720534096042085 0.12122464231965369 0.6165742714991944 0.08220621088285407 0.24763737465813473 0.2705345075090564 0.6157937021818799 0.1251031301974408 0.3731663884977081 0.570100416441759 0.5120147590127616 0.49111920189083924 0.9440297199776245 0.5890156645002621 0.6946530863579808 0.7698291351132268 0.5883751554527974 0.7359892128702582 0.7296549054021424 0.8477124004941943 0.697630159948517 0.4708126708372222 0.746586159929529 0.6492026174676157 0.8202405351743364 0.47130803462104554 0.9705103089655058 0.9682211874723164 0.33925451138499296 0.906079378472214 0.5264361663645851 0.649677072950556 0.4496856404302122 0.720232074895833 0.4355082276014757 0.6071098998477851 0.922134648349036 0.27942283876045326 0.4494534303148485 0.4137216908100697 0.7217978189498891 0.12360113731795497 0.48125991856607797 0.9406654699394738 0.016594648255159994 0.5735260382462853 0.26981516660727456 0.37299253126493404 0.6979340179271147 0.5915237394336348 0.20336948151727163 0.41343660899789214 0.6385708708752333 0.3615494202477808 0.3942104486367687 0.9359690338168783 0.03849269282770251 0.2215452564094611 0.04771196811005429 0.26386139947910203 0.13166480375780543 0.7167916625040778 0.4971346817356259 0.9942314868190787 0.9945139262051108 0.03453687384229209 0.9497582312931235 0.7362988582668296 0.545107967585914 0.18318928504665155 0.3300319843274443 0.0212463905728143 0.5302630762193994 0.3189675511620106 0.7982943130129603 0.6128587982547483 0.30882261612181716
1.0 0.26988087340585776 0.9732215484283907 0.4858510550032318 0.4042141013065581 0.04565209538596149 0.16180061199397844 0.18951523175625828 0.8050837409685255 0.3617547273977235 0.23324394320408404 0.01770578057146699 0.29245269847340105 0.018707860911025942 0.30291347307180183 0.8984875776948127 0.10397781642832127 0.060322176180498954 0.9873037234877468 0.16737104782492995 0.007673335215222954 0.02158417548585978 0.8840194698853082 0.8811027294187972 0.678340082409216 0.06731267968322185 0.16885581123632254 0.7924365316383613 0.9610992977139832 0.9428259423720351 0.6475480893769104 0.7472783430553445 0.5715296843712421 0.9934663244995459 0.013597219353777668 0.34057182549959397 0.9912416070445514 0.38048020901889934 0.8178212446495696 0.9741341363531396 0.7429561728118487 0.1779079705957115 0.353928862223464 0.6819752339453725 0.7375999755725696 0.9963344644943257 0.1351797910873328 0.7869249778568776 0.03262617402154766 0.0025684208129170827 0.016372349170351574 0.34299524525891556 0.864492323813729 0.4315027619883488 0.905782933600386 0.41893522274055306 0.26928077540681583 0.7362773513630638 0.09951876724595976 0.5732173017631732 0.8069292132127018 0.3451088500334427 0.3235477477479769 0.11015720223535008 0.09941422174585957 0.8258545218533114 0.3625748312235928 0.38719829274305917 0.920943882510744 0.28594880189977046 0.34626153321802955 0.10612138370740853 0.5068245067173051 0.7263940906480527 0.2765494238003847 0.98586409687286 0.13467522615921423 0.4691816417774948 0.024856589430424125 0.33504834552278584 0.5334027028335029 0.03890798473725754 0.34636819206746694 0.8796753080602724 0.053283315075704385 0.9464270800348817 0.21308493350507196 0.45810886430912134 0.3329103820247693 0.2006572788780253 0.001767377644978363 0.857502398151357 0.3234881884183606 0.8081091271251926 0.7764265173210692 0.7108029707920016 0.232581070011595
-1.0 0.544286085093597 0.5105862865983345 0.7635342689650091 0.7660280963577746 0.2149192962744093 0.29951197500609605 0.257958450846448 0.45626024301117496 0.6368324503259694 0.9880701490471924 0.3278768085425626 0.9884481863336799 0.8354047488596937 0.07430104967829798 0.19594629432732025 0.8663735719676062 0.14029536387917674 0.12938452583921134 0.685696724927459 0.21626241543131774 0.5964422614250977 0.5993236212428751 0.583418867429028 0.3910586408534682 0.08963003435604555 0.658449688888025 0.8266700744177692 0.8843082181832679 0.62558373200078 0.028536369390993577 0.48744251494049873 0.37406221685877983 0.08541824494933148 0.568164175172671 0.8372328638751316 0.7777442099146958 0.5813700413691325 0.6828464620120729 0.48072722900681475 0.8571906699459283 0.4631237409355795 0.009668340705385248 0.1322041772560859 0.5859315567457928 0.7904673793494998 0.1142501411036454 0.594115852978214 0.09120293261939794 0.391474633336911 0.5535577182261405 0.21897254133559219 0.24683813033132773 0.8771623828655823 0.19864929313131097 0.15962986100165877 0.32666267132575777 0.10508602695026414 0.023091871934161068 0.39763398286658846 0.37496055163875086 0.4048902979853737 0.32219547608601384 0.7195640564273399 0.8576998860577837 0.3728785114047902 0.2381717504480011 0.5884551844261968 0.20600818179636038 0.3062392294235372 0.47198106643514126 0.1476388324837572 0.18163019593300334 0.12740852711568096 0.01910970935416978 0.6287101799434271 0.15349289161618151 0.430178326679013 0.792723521765619 0.7728445023675361 0.4493102683016319 0.21280596743096147 0.026374645317471135 0.8695831304127759 0.7439167719539086 0.40331821331624307 0.3420585827674564 0.2615024684623569 0.44987733449107636 0.0945521822097517 0.09442640813764513 0.4560672343085015 0.4029832561668867 0.4453863831396121 0.6229185598752628 0.4754806752576387 0.5793497333407766
-1.0 0.6580372354658554 0.24852174425283668 0.972877729009165 0.05174669216902783 0.31544003785921393 0.8194178980187987 0.5408970603291364 0.6476049631326191 0.7601664371516962 0.8370854793281333 0.16746494953967517 0.7449487531395015 0.5771760917962778 0.630124827694036 0.7021802178305752 0.15099388637483446 0.025608302006665196 0.32103046837283244 0.18266860385939965 0.26342098547870774 0.3281622652247831 0.7770288103992662 0.6536880600760295 0.5317985029395461 0.0560232821474238 0.3929940533970556 0.5829434799153479 0.6841618431459108 0.9789658365157958 0.14602321723170142 0.14839804047239424 0.49494546792786176 0.7081226462270179 0.4743342109137293 0.07892326239959191 0.14173092260531128 0.5489328719090147 0.8922215416289629 0.5583581235433592 0.6320123866428881 0.9338028980403126 0.8797430970485954 0.0021871143530964865 0.9556011087116462 0.8135169089448799 0.7541534722792347 0.9158788992327109 0.006318384930580567 0.9649484532497294 0.16882098564523584 0.8391172120858238 0.9053238812229989 0.9735646441902662 0.6841626098811854 0.8619792035634921 0.09167284791772179 0.9210722148546183 0.0751499040890955 0.8431921096466996 0.5961298846908705 0.9948870950014199 0.6101381850098326 0.25085807650183156 0.28751149538215615 0.989608038048305 0.3936721840300398 0.7851910866798976 0.5613427075368059 0.2929353028704098 0.33322852634294975 0.893685827341126 0.4160846278869914 0.8167357777662363 0.5656616479397998 0.010650446007622105 0.614205937888035 0.8237023295838676 0.42220256684592394 0.3809091106075414 0.2613079069608818 0.618394500632771 0.4973351023687035 0.5690650050951426 0.7296600366743052 0.6287097758618221 0.7499690771124506 0.8739882654580314 0.43617773063521637 0.0025527177173095827 0.365328285437568 0.04571415312873606 0.8014652149957253 0.19679390476596526 0.9682700602817549 0.6763617481191717 0.9957479714725814
-1.0 0.03103414512210645 0.1204047169617708 0.1725200328289498 0.04891910761075391 0.5089543699923679 0.0025012040122868173 0.24920363320785255 0.30162958970855 0.7039986885835069 0.06503585494912589 0.4294048398746858 0.7513715185070935 0.6077837675729557 0.4488958229485469 0.5594492439761997 0.9167407583916851 0.39871228257275615 0.6372438264554008 0.27466180581209465 0.8817257286133381 0.21436470716500544 0.36354011159223576 0.9265580440760509 0.42862817135744935 0.4982523950101243 0.2183970973533922 0.7517199885078614 0.07902135160125345 0.769407150306483 0.9216588362713783 0.5779298137108384 0.2863657216710964 0.07166880528696185 0.38634425239269865 0.5848195780704737 0.7370230575183505 0.33196466729243923 0.005797127600828511 0.5473152074385379 0.008965053899927078 0.9537967580145501 0.06840623854595407 0.8201308091517946 0.8916158577125638 0.8375585318238679 0.05726068595765499 0.8723150553292808 0.09942096402909928 0.872627497890778 0.19569697161656852 0.8370164212644975 0.9163597163796672 0.9494686661976356 0.8092562017918024 0.8539832758370501 0.06706380462286354 0.46834196443022513 0.4721290590996279 0.559961934703913 0.5982524588789631 0.6973387485851813 0.9968083641972142 0.13245768186723395 0.5980096249909147 0.25483780359725305 0.021562764177518345 0.4767070333940099 0.2656987368461178 0.4322894770046529 0.9735858916129151 0.4322491235886018 0.09520168363098813 0.4978933911377178 0.7531900156417947 0.899825416651786 0.6399433799586959 0.7160757812436116 0.8450953509064186 0.03306554667551753 0.8435667157964352 0.12880762445594507 0.5037250945200965 0.810081652605857 0.1201382862411986 0.6181530663779826 0.8554411061583197 0.6991727501574195 0.1315420248554363 0.24964292163617874 0.014095579610321263 0.636714773870404 0.1394873954772099 0.8976001082543935 0.5055391013358467 0.2772866078655639 0.6484010591292865
-1.0 0.45793571195230454 0.5590372661146532 0.8798736055336219 0.2355196802774775 0.4048471532276734 0.6249688074403292 0.7592137058007467 0.05822480678303299 0.42332931805508656 0.7576001484099646 0.9879507747252694 0.2925103686746813 0.7948594672798242 0.9814381627714346 0.7893826958504724 0.9936466703435319 0.9053739215038554 0.5966140096452301 0.7944724230834064 0.8537409514110017 0.5485463379970659 0.7459477911322618 0.2721933753326744 0.41577692719476445 0.47240453668108773 0.9070637363492571 0.004146297957443257 0.41551065066118265 0.0585982113653406 0.11099780118849878 0.11936048701328261 0.2538386845088161 0.21325138203376137 0.47385500146559245 0.5744615469377068 0.9807476318633039 0.6759563179807656 0.8044534499938744 0.4643738336516914 0.9874781190836783 0.21068361188842977 0.7839605940820566 0.4469241729155402 0.2780546243413563 0.7021869143749928 0.24743836987490397 0.02772680621073953 0.5743679277067034 0.9990334830443203 0.9604391987378167 0.19193794889776172 0.9948732094246054 0.6182930081742801 0.5265454466744761 0.8624214401159961 0.9206251516546928 0.31503730953544606 0.4640406277503697 0.12099040297680086 0.03833210080209881 0.15378281790646842 0.29844981282007776 0.16890736939184714 0.11287835854101935 0.35612562886989396 0.08181839528007384 0.7834019849844659 0.04435939430708635 0.9359251660767132 0.9776676807887862 0.865640472876795 0.5106352012095384 0.5744656931263263 0.7439568874583647 0.8941715536193862 0.47538983744756813 0.1371280120585583 0.7394297271975724 0.31034298333031685 0.1481060086317918 0.24548807310342846 0.8465512829813855 0.27258027002696206 0.02106622425994642 0.9423737868815947 0.8456908790926719 0.22445393877201292 0.7919685320242006 0.8170383554010113 0.6127741147656494 0.052028174974287134 0.21881653632876752 0.33617473226748473 0.07970962090243983 0.1239559875618208 0.3178791267915494
1.0 0.6792618785468341 0.0857613965954207 0.882993234084668 0.3631504995023088 0.9674124213383714 0.04201096015013128 0.07647682697649594 0.808833641895843 0.5646809846824958 0.4475408380534551 0.4940515351566347 0.6489232898225795 0.4958851851897397 0.22604292587501673 0.9994454371108509 0.277140501413773 0.9754829126860277 0.015138648468784766 0.861838959439606 0.10452844143302675 0.7113372629463003 0.27513216320140443 0.6852338239418808 0.08924443347137712 0.2451359046168884 0.08767379666130382 0.2715644564698989 0.5211965737501281 0.886847541118653 0.9197926357989131 0.5200237338240342 0.18228292113948352 0.42213854773912807 0.5747765803606129 0.9670765458398838 0.8474932490383753 0.1689036886409827 0.3503005993181315 0.3360830287799059 0.15143642871071106 0.7890391736569139 0.3413106429271028 0.5471994042736361 0.2681075094803623 0.301162246674048 0.3398832205320168 0.07544756459137525 0.41778899684275517 0.16667558456696474 0.41336587156679117 0.3806857514231887 0.8722366328232563 0.743584128574955 0.640377162142618 0.70765562616797 0.4097606300396268 0.8130352562965509 0.8338309469921587 0.9016022571948565 0.996224765000243 0.016054946208340026 0.06438848854306245 0.29374339914418957 0.695592921710115 0.28981470609767723 0.4476095686755843 0.2883700241631577 0.34154768151642745 0.46878845736473906 0.587208139703013 0.9176499271023668 0.5517993112853489 0.9622345689516218 0.414898960111727 0.8958069493549282 0.12019023023436193 0.3164510054671764 0.3250184718592133 0.7779907730933225 0.4690150133170854 0.73747505015653 0.5732429588949294 0.1890746757138816 0.781256405529807 0.04819747040657463 0.3815223099300874 0.5797606994559005 0.02533005752580786 0.34546403771150436 0.7024592205411099 0.8834597461678149 0.5305668921288126 0.18537942403136698 0.22770681914270285 0.5792122900317416 0.6896438077362573
-1.0 0.9657361495879943 0.12419030167908007 0.09053422314680715 0.015948086496024416 0.531790437699653 0.26745136508750966 0.5530909083742998 0.13386659758344277 0.7641714669340715 0.9853700018909775 0.6371596466899107 0.7544766024752021 0.10655361649096884 0.003823383898022059 0.5527796809912149 0.09280132120236262 0.583298532019691 0.8493818138634228 0.7195773033493857 0.4224473591531086 0.1836166168700557 0.6125884406078217 0.013462826969874442 0.22233612830270022 0.8598609837189198 0.41630181832198165 0.2534931824362827 0.37281402535362074 0.5624668251813957 0.7776889776696141 0.6471592697563651 0.2732837223875919 0.7071909859975549 0.8425344773729229 0.2500263803663326 0.6946255640408326 0.31817138984962445 0.17168884012932606 0.9430190299514366 0.004190366100525478 0.11897248702857421 0.360827151028286 0.74692336847149 0.5443594210386538 0.8815305771340346 0.9433870455041219 0.6706501983314999 0.6685904860574041 0.24701122120261942 0.03307117249014313 0.13669505447948382 0.3013297522103786 0.35899973003931485 0.5271800949056072 0.9572462569449979 0.5053216067533856 0.3369297012721848 0.4067969126559191 0.9757078038805941 0.3387765555358194 0.444524436144736 0.6061529454457154 0.0113449999442915 0.8161108550434947 0.018114716309228895 0.10221451862590603 0.030484105094747083 0.602850147686901 0.01348222017949463 0.12052933449198944 0.4869229210694679 0.3437962057877948 0.3522391562913496 0.655587409477703 0.49301239027869237 0.5181010866857266 0.14059587336158452 0.5784805696752097 0.050654579625930896 0.7179390689532149 0.024230090908760382 0.43540579125781964 0.6660780843921739 0.8506360072234405 0.01892418256125472 0.7563478381814612 0.011006463521386234 0.45594375189067327 0.09786483857741557 0.9620533311304709 0.32827289891133804 0.7949210194196035 0.23807498621381695 0.935445568603016 0.6609054903405861 0.406933668659339
1.0 0.14615228167947103 0.2304774595837512 0.9479995612905728 0.3578888465956239 0.41641134857215145 0.01310119811838184 0.3994740400840453 0.038240237481064754 0.9800748389268019 0.4286903135095178 0.5130912181717106 0.1542832644356018 0.41911131630230747 0.3894778066358199 0.4960146200599207 0.09340780260661574 0.21230903293975423 0.3035360454475584 0.645352303240073 0.14381792441870256 0.9390663412979949 0.7909463304081821 0.9449207210459131 0.09793189243098976 0.857323928103802 0.715075691225901 0.14481342535131658 0.5334182732284442 0.07650104629048615 0.241313838249417 0.5204394603875773 0.21842048019930171 0.25580407461812815 0.6871404147500512 0.9476973108343401 0.20821262759713755 0.1465629859757066 0.6372101729409284 0.993485077852095 0.9291803514629129 0.9638775134525714 0.8738856118228839 0.4909235465503504 0.5929903785984074 0.3377520178925357 0.9555592232299024 0.2952578741494173 0.39752852783305304 0.10737185376729674 0.8909600842555426 0.40795389721574316 0.8043570055263067 0.03260503135630466 0.5652910320946815 0.14959041322878364 0.8131724660304656 0.7044137312952226 0.8699494333574637 0.9711897739377479 0.9633172726193768 0.8938948893505817 0.7293882474914183 0.6342865975823143 0.040775889304264124 0.5796608192533614 0.6251796995654767 0.13943068538136316 0.5417469021806491 0.5131358288189513 0.047540283962225316 0.6176983712193149 0.5178967746562013 0.9227833485506254 0.6766596053690239 0.5365376622574457 0.03803275828438557 0.00945997369077023 0.6073640292250503 0.5441268077902839 0.22882054922205664 0.49742916310211094 0.4167789174948374 0.7758912007926067 0.2120210140109301 0.38034799213969417 0.049758406239717834 0.5141837625770518 0.7608308717057938 0.5561631479533136 0.687971968472903 0.07998968407078677 0.5208131735046926 0.03557710487888954 0.81037066373273 0.6213386018219749 0.9022683274706893
-1.0 0.23175406345502536 0.3309570792897297 0.07754215467626269 0.1354933298676283 0.7563527790842401 0.2941737879911148 0.5229613382770597 0.6182395083935843 0.8383514405448518 0.6955802368106948 0.37887271841092285 0.40291964398853053 0.23130607052255858 0.21957123349593388 0.897446237998351 0.5784669754516827 0.41010896692797827 0.7200908253244271 0.02427271862912972 0.9963910290109131 0.601140393663628 0.5461577473364863 0.2541130810669625 0.5510646923409231 0.520888358386863 0.40270900347526994 0.35835364863649155 0.14797232050563025 0.5426642218307748 0.6608557393437151 0.32568761883113684 0.2896729311728641 0.9819844522044595 0.9417337909776875 0.9663541712565377 0.9064344609917494 0.00803873469185834 0.7639199235998517 0.7894177035849945 0.4439652335515557 0.5613288148204981 0.8171877562196331 0.8350927081604346 0.44159168793355574 0.6019012898112467 0.007261553558109535 0.5081099584575683 0.01844063478372293 0.03867461050521981 0.21719176260932904 0.5051155524034975 0.4083732558138471 0.7265511522538687 0.8014436204470804 0.5480075638769731 0.20810339337653216 0.860813607267167 0.7106024973125419 0.6816167266039439 0.8638698136805572 0.3366014020415167 0.22690199917508846 0.6986846931147359 0.5155523095631841 0.9127463471187935 0.15098552434564572 0.8238113424027685 0.3154498690170716 0.29734884511364446 0.3159767651368387 0.14647974880225156 0.42978809984290456 0.30514776378792674 0.5742102816504487 0.5141356974854366 0.020624601996158787 0.02135531399974766 0.007918994860259598 0.2257999284144121 0.536629592859378 0.5456900721687244 0.49853545908089114 0.6193278694396389 0.6946347745436274 0.3327470206138713 0.11916390924827791 0.0349081037692357 0.7026257054866133 0.8546452824673942 0.9407057771628856 0.2356562441656881 0.6095526426276294 0.20672252813910907 0.6139687188521273 0.5398829609312684 0.0413963186779549
1.0 0.3275629291243417 0.5578200216274309 0.5624834456861713 0.028876431537755543 0.3734656709083052 0.1644991381972566 0.8132943111997363 0.8600571200041668 0.17606325211120466 0.6576108775869873 0.17326907729112295 0.7062728314136011 0.14142560608881716 0.9150813534456649 0.7010860492005829 0.22123743087330683 0.42779944807810866 0.5631707160134589 0.5736763196636824 0.7280647674523063 0.022407362803240516 0.05829086709381548 0.43403810563348 0.49478460471029306 0.16671668813105378 0.6085764504774344 0.4223499381644914 0.3289393731620145 0.5534108465250119 0.906229605166637 0.400941616905347 0.5060263242765186 0.9618472696591737 0.5845767754791501 0.4676725436463909 0.5785008738916682 0.8091679137519493 0.376450517869385 0.4511734741587121 0.916242163383453 0.26279818643665065 0.6433156038837352 0.7451082198637989 0.35790639713578165 0.8129364926292151 0.8083300000081448 0.574963528474153 0.06781592453145169 0.46060173314910446 0.5723232672722899 0.9591967365511616 0.9586193605290838 0.296130466257722 0.5045893242240564 0.08869797406252067 0.4779687802708197 0.9088528959890848 0.6128365025050241 0.9903752882803609 0.5982750071656553 0.13940187877477983 0.09566831625676875 0.7462945035472409 0.638712828826595 0.20556361432336234 0.19845039291193534 0.34761683954524236 0.0824329013295243 0.5488086267343737 0.5709291065736423 0.2925023359132405 0.09910099821413809 0.5670206927044484 0.0680684594688219 0.23160244829085885 0.18841995237068854 0.9757885479468399 0.805701686623535 0.28291881698484855 0.227436015123335 0.7265087304046447 0.9064463763863311 0.45408711479604924 0.6453556572748566 0.6284214161783901 0.30108681057536735 0.9037517183609263 0.3461314296961021 0.10242111806916787 0.5095953487993425 0.75912650018913 0.36221262672214805 0.16738078835048842 0.12860304844803716 0.920885522775758 0.7195842448652952
-1.0 0.4470485458044068 0.33481812110177034 0.5110421476817234 0.980711637586202 0.7958291175716615 0.688028063696493 0.4169451677491687 0.44970433797325016 0.46787866058010097 0.11558807967193996 0.8377612265718866 0.6610504355188916 0.02767632842837664 0.5184413036654515 0.5045525747484102 0.3838370805635216 0.06021461544243345 0.8602065660478646 0.0478985396794841 0.6957688985224306 0.7046389893214517 0.7681214275654796 0.9059363927305454 0.5399532605290612 0.13549343355419396 0.7796731764777864 0.6883796465331037 0.25709520473249226 0.9286913800590323 0.6669607535598655 0.4432795824712371 0.4875498584963638 0.18207900651630593 0.47590412934324455 0.08366208944042386 0.2469685899172811 0.10798923275238193 0.242941630805653 0.2975491143250486 0.5003119764112304 0.8697843186198079 0.23775275623067826 0.0957448348702159 0.6510913130288594 0.5301370839626581 0.2955934828144203 0.7697310857328722 0.8462019878565663 0.3667523392320329 0.15418129813657644 0.133872072896415 0.05320581022413129 0.5427747578679987 0.20443402653572917 0.18458766146648486 0.43358813660962126 0.7656045394028963 0.7080238645780049 0.9041358913898481 0.20078906159489274 0.2515588991934675 0.1424413138382925 0.691041529131551 0.6756311301043783 0.362640429655819 0.5034207789933596 0.9119822135448471 0.42368524418668807 0.9725140211843871 0.04467910321922075 0.4050584746394278 0.08797823344958411 0.28996049342406005 0.011049433115344565 0.9183443552414469 0.13828861541531834 0.3221282570844013 0.2956432290558233 0.00868746996345171 0.12283054360645174 0.440095273037752 0.1594739237896392 0.46927416262285915 0.7418092918800214 0.5691524022508125 0.08734605636396475 0.029004144507139507 0.6409742200234335 0.628579880495171 0.1469235421066093 0.35401027430944876 0.05037164491815149 0.4818874620841129 0.1800846956290152 0.9745861017839899 0.43364522459638255
-1.0 0.5193086351032866 0.9844716697034641 0.574383973756568 0.7903772302504988 0.19286861573533776 0.8262354478225322 0.0016495169930758058 0.3643515717448409 0.6329360496165051 0.9432856055387859 0.3561373769953634 0.6875687401621966 0.5507710288023098 0.272707249258078 0.41326351886646673 0.696669452722111 0.6687221162586379 0.2367357020680796 0.13039272437851257 0.2331875319708061 0.8875457407780165 0.16256819332372985 0.09032217087251904 0.4120662688144662 0.8021055051831777 0.15618248317764571 0.5820458447185475 0.09398227125221159 0.8468779793239674 0.09303635924368114 0.5062393684477028 0.701672921676386 0.8785152368009118 0.21223560208575076 0.8910019346475823 0.49328686001059097 0.6072302041006274 0.4415397644605532 0.7849745530200473 0.43784875926608646 0.9030386725522173 0.6429458795943258 0.28650321702392334 0.6757944937764462 0.46116898834800746 0.12048278009094282 0.31877752716930885 0.02730399839174158 0.43129643794606076 0.23210823287474047 0.7218316984826314 0.5700065147692491 0.13925540934417557 0.20434536238410284 0.2622571616579753 0.0170282428337708 0.5136290048788796 0.12038783593834101 0.042606704729259315 0.505066252965196 0.2616860355393391 0.8215258883199288 0.8983974607250604 0.3939673732368447 0.1500123795680104 0.653816867986104 0.2992913595809412 0.12256537551046287 0.7591128749692323 0.5512379942773601 0.03932090086330153 0.08253943660926666 0.19243148776110153 0.4113339948875131 0.32850048322433456 0.9116843971851049 0.6343252938649994 0.054118974359188776 0.24660173648418815 0.17842151922481575 0.443538769840109 0.4590442330409943 0.8041392379588901 0.7841322428324433 0.9654266261825757 0.4795663177308035 0.470573562812062 0.4772303948205744 0.1764585539003145 0.5051204031718622 0.42072251818218287 0.08026361759726419 0.4151575979594907 0.5543456362964106 0.8206237258243431 0.13971696424949254
1.0 0.6173781823958019 0.08208495562648332 0.8638284297227662 0.9701356427841457 0.41833615264321 0.4580799959171472 0.09914171619249657 0.0711425536932836 0.5688640435182241 0.9698815167167364 0.3600445248432852 0.6677024732772732 0.38293253853443576 0.3943524195072372 0.41285809914323024 0.443993794826089 0.13667732420790502 0.36131288160752995 0.8341370577892657 0.9762904939544748 0.46691496009923095 0.8996186894131777 0.9942373114913342 0.5066598398578498 0.7257031009782829 0.5034032949503437 0.6669851525766902 0.006476990740178046 0.09291189501899932 0.9083719516654641 0.6589912285126703 0.5315618177590786 0.26128475003573104 0.46202939453488767 0.9654280867805141 0.5814996054317879 0.5437955530021774 0.8192757749006928 0.3288555481338775 0.7213649275964353 0.16205120348046198 0.19899994521175135 0.17913572110857856 0.812104358298424 0.11805721190325114 0.04071933219847301 0.41555934857070487 0.6388131432340795 0.34692201927559296 0.18408321713838183 0.31023793219809026 0.0609052424441191 0.6670210319843488 0.9866314486649805 0.031620077738641394 0.8283548515093159 0.390234927838621 0.9275791455082533 0.25278991060898304 0.26858689246596656 0.9286956297309187 0.3487254134281108 0.894702916166582 0.12322737108482973 0.6240415883103599 0.31857795923211407 0.05623619746939623 0.7091283383418995 0.7308580978741134 0.02130910330250202 0.09946151354107824 0.8020487150913174 0.9573114830794385 0.021161701085953277 0.8064519723251299 0.9140644881516042 0.9308510298468442 0.3222010862448721 0.5398636120435849 0.4717917215515398 0.22333866422419602 0.5470262509174592 0.5067294114763281 0.9782692135245719 0.4443661649699777 0.4796427245155992 0.21109617527323743 0.023954050187993903 0.8279250477492123 0.1412100344125613 0.976379956706547 0.5083653026099986 0.22988318418527554 0.780346647846114 0.36098491366072594 0.5931752985819757
-1.0 0.7633160538840762 0.163203807051168 0.6568009932606129 0.6514523487201952 0.21936920449175723 0.030902714221276995 0.9839395370262172 0.5625794392734501 0.5303402747747645 0.6743263763067545 0.24595041378514237 0.4133790993123049 0.9786132291431663 0.4844302260554545 0.4911409441678303 0.5258927310852005 0.4592252407293359 0.814736751275714 0.1998726424166607 0.3963319837422623 0.3708925171227042 0.0853737407409021 0.03319471819137476 0.5855185182886696 0.3760112570679528 0.6997464093284282 0.5580003374823186 0.4751693887167582 0.4774267503814179 0.6285688973922189 0.19600712724319425 0.6570948574727337 0.4818341506795192 0.631858820194267 0.47234910321883405 0.18251178820516112 0.3691985186367571 0.28090844537886295 0.27081010641819026 0.042544182299926514 0.5764069817020672 0.07320752977718603 0.6496507156429826 0.6618979801216119 0.4463099467217123 0.45194009423205184 0.45603330202280346 0.30601519395468724 0.504390562800848 0.8056838980615706 0.034737985033333585 0.80306537414369 0.7388279028491347 0.40006467760218856 0.41459137126683354 0.894554291673346 0.5619682567986157 0.8116445651715708 0.0032029439380231173 0.28134048280388435 0.7439652153296944 0.5656553720272317 0.4466467867090307 0.8145167074670477 0.9784814594157468 0.46400878488048947 0.9265550756134893 0.8714328552098018 0.9357177017992201 0.385295744923546 0.2379791463138058 0.6416198503353001 0.6076921721371801 0.2647888255770475 0.7697199122103994 0.6666851779400575 0.1515875985695173 0.3275824755837178 0.8392792664394438 0.26664676696893574 0.5482205722905227 0.574381533260828 0.4569148787899867 0.1495822946130103 0.57197163791022 0.47255801265510033 0.18798087432145016 0.48025897962022135 0.912049346472445 0.9967690328500357 0.22142053268370432 0.3548227280035575 0.05748738942766929 0.10017309482715264 0.6785346895375487 0.39574398300582914
-1.0 0.3575813700709427 0.4024990552490978 0.406134140676767 0.5049475871217811 0.40662510804047025 0.8861220431319867 0.6118232139119959 0.051685449628301794 0.06641790390489011 0.014858412670132548 0.8700874130786544 0.04560357345531596 0.4035055725389376 0.40796036720533724 0.5498757814294586 0.001422848738285687 0.5692875749141856 0.9718457399172776 0.8165624775129607 0.33464247158254357 0.9754259118352686 0.13895916004686015 0.7750590242392729 0.1509355770299008 0.7804975891073866 0.6346599834634752 0.5942338769179167 0.5333757264420452 0.2608262834485626 0.6449191780742587 0.3703487837730304 0.6919318772887901 0.52079478438371 0.2676158028888116 0.5422433764232099 0.45248257880267206 0.5195454462689458 0.46110186058420033 0.3301959203714764 0.5631787081872288 0.3168312210119325 0.9996266730472659 0.4826162086208191 0.07951866469172708 0.6373655057733195 0.3960463345746371 0.07744811394450479 0.501088170008525 0.6687747738509132 0.7165661794934997 0.839314633852615 0.17546635710887026 0.19158108797461593 0.7267514323543441 0.2577953642402623 0.44302565300954677 0.4874317891256871 0.01919173850424305 0.14507329961781446 0.6964105954617816 0.735538940257671 0.7007018722170717 0.6623486273702234 0.949440014800427 0.4906005279285668 0.7559753727983229 0.4060194090917877 0.17523118600522325 0.7259942097422566 0.9415165738253849 0.004971113004144656 0.9043817440779446 0.409795965653863 0.09979125146671197 0.25984444497296366 0.028654331724112803 0.6146748934651399 0.9832101568404612 0.2601637195965819 0.7752103633355699 0.534911002420956 0.40222156409287335 0.9662614260257136 0.9422510224339612 0.7355433036899325 0.9941584762387222 0.12105897136645383 0.33225337877227323 0.05992932854087141 0.2149740707693928 0.06909572464922864 0.6429324029036655 0.4432459212923924 0.7673638027023786 0.20061683216878268 0.30563673495543797
-1.0 0.3091393900146945 0.08718537590137754 0.02455849523757503 0.2797999738071655 0.01337177307230275 0.9745889275450913 0.09496370184447034 0.12960243828504003 0.13975573987161738 0.8477179380407776 0.8481249600823526 0.7109285331873165 0.9500236589431224 0.4350697941038566 0.6794418284297559 0.4507360206382548 0.7131973383981034 0.7392844055602522 0.36636245928297506 0.6351264399997715 0.7840153082863278 0.19088965380707856 0.3688799439146436 0.9335192562646694 0.9447463864006 0.09476910783453774 0.273616676429578 0.4041692574514705 0.25934205168512303 0.8302793563186174 0.7577837946449644 0.9896325844919448 0.2569541364079708 0.8732598452197744 0.5654745129843245 0.2060478098191334 0.4792225070129773 0.46874744110288546 0.8171103986690569 0.11970387178761355 0.14078023532950357 0.9788650778780847 0.15420950433961444 0.1692269954549882 0.007949704689255266 0.014427397620429327 0.8074953394456654 0.31938753009522336 0.6643425989934575 0.0983288851165437 0.908973741264916 0.7104168331967123 0.8625825347942239 0.36138982550932486 0.8479965219451431 0.2345524104973319 0.4417532526197878 0.030170963983934707 0.28983719458644785 0.5200930234457909 0.7907916913049224 0.5732623287849463 0.7758974936564144 0.6546345687461299 0.3915663333224758 0.8574696103333005 0.8125700244189102 0.6948491501098962 0.7722053276205756 0.052269175089272535 0.6812829004174414 0.7091398733183757 0.5944204779470946 0.5416386059125832 0.8128963405127368 0.517861805857129 0.8054926799508436 0.25414225140432756 0.3503584789298134 0.8451072877835568 0.5557178898877394 0.9761014024207938 0.04813201462810901 0.06261222769598473 0.866109396873292 0.18877492767527226 0.1864870403272667 0.13173456056620136 0.9334032002575807 0.264574955851846 0.9121521642427604 0.5075415335236256 0.3256868635332424 0.6815010299894215 0.7690658297824077 0.11431942660485073
1.0 0.4204994497938105 0.08853812602369748 0.4632769526324947 0.8849498181500027 0.0054575168265962315 0.49781893919952547 0.5433849335271274 0.558819685818791 0.9200026815310756 0.27237402185198967 0.3825638161228516 0.929793511838925 0.8989508225683992 0.7872057616040345 0.8447626377124885 0.545188477672294 0.7426594612655618 0.9999358632045503 0.8525145370661932 0.8372306647363805 0.2305313320568756 0.29042872809864184 0.5415191091181508 0.21041212793080666 0.8693355596551872 0.2201510875586944 0.1858829129958881 0.3157254897193861 0.025865671369029508 0.4712746984302183 0.1045089405528693 0.6539997208095922 0.19946721929787703 0.8885071503481076 0.12661290620320886 0.17395492823549596 0.004346443805871347 0.8216346381510108 0.46797729268716115 0.7656877203922721 0.5587802522604054 0.2504644293380266 0.7798771927794945 0.27539855213415865 0.37599950445599506 0.7308517803723515 0.7538647701713738 0.9250572645462835 0.6806396456937207 0.5331567008337463 0.6118917771128285 0.8414737958731692 0.30468919762020974 0.6830237725796204 0.5886234494788843 0.26856134680377486 0.5939652715102168 0.4276895148953771 0.3033818722183932 0.8622806278551407 0.046201544330009336 0.8962423149018333 0.5562172977985835 0.6914182395544457 0.1111685238671718 0.6779848374176497 0.11749002104024298 0.7089285864423808 0.5410494005605264 0.33239953322300375 0.25573256148925194 0.778093930912332 0.042206331808333664 0.09139505284576421 0.05566209560508906 0.376939218512062 0.31940912284486456 0.8065169420336565 0.5785059181568112 0.28430145162486753 0.5241182294340403 0.3539350493471731 0.028032019718309265 0.0721969711920889 0.7720884829368352 0.4944297816640657 0.20253859352321402 0.571247775165149 0.9934421064169112 0.5935352101686382 0.21481614191054366 0.6241132615719285 0.3007797917776033 0.9036029059446505 0.6608714342637615 0.38825745939546896
1.0 0.0975698902415868 0.5007631349416067 0.13490616469898697 0.25092418158520824 0.6145609674945866 0.7093809228215684 0.7807384404291419 0.7994128422115312 0.8876696315812118 0.43216294032363156 0.16617664697011758 0.5162616470037018 0.6822388164300882 0.19744900507542007 0.029925776231637835 0.7810708245743467 0.024272067432456024 0.13964709541224907 0.30786447346276546 0.20335131222980485 0.9540356068893052 0.44417616379226066 0.914040774500698 0.471938177769199 0.32655448307838475 0.9747808054783986 0.9295064650397136 0.08076547773570741 0.8826688993571358 0.4539278470625435 0.002321895434664878 0.8009667208858009 0.1788812609410797 0.3170809505698452 0.06470111971630754 0.06744741555865552 0.1691209874274311 0.1671641863620964 0.3158312107828528 0.8622968765648426 0.7332632896838542 0.3480457990288195 0.0694764358318869 0.22553171323646282 0.7597349388461258 0.9769078927883537 0.8352474390757093 0.7658710723847484 0.04921174211691237 0.3695248828852389 0.8288149604641021 0.28966915219499145 0.7941903263035722 0.07291977520309312 0.937893802883502 0.7351325390143778 0.5522678790120177 0.12715984561360738 0.10341123632866034 0.5794544051307546 0.9450013501998551 0.023920217153161283 0.04265671307051111 0.049823185505253664 0.8541315024532865 0.5723171902326216 0.665288609312785 0.6358112853503821 0.8702884745417109 0.32609781260796056 0.4942219470357073 0.8656480224411089 0.3591440080060859 0.38617238057445236 0.3407940791324542 0.876087936122531 0.25378679018169115 0.48925214185327626 0.20618002895209142 0.4960006951255368 0.057228419076107984 0.03140690114092981 0.7075917981746359 0.7924204442505026 0.3699020826087531 0.3521318375247605 0.5601968107676902 0.33455124245451595 0.8053225921667055 0.932609608528525 0.8175427585129714 0.30326377332971854 0.6727054769118496 0.12467862291184229 0.03286005108752821 0.4421097112508501
-1.0 0.2074274893543474 0.2605157685505747 0.7463664961630201 0.1261794721046815 0.36564624459066164 0.13357089732305927 0.40394067283616664 0.10846888283299472 0.7671267425130636 0.0797740892129104 0.762565361622012 0.9156271633269409 0.9556704669542461 0.6629736961418082 0.41728538331102905 0.9158894705939025 0.3499023555019949 0.7510646327247429 0.8626233298452648 0.2622000575862633 0.32892053086326045 0.4371586177095512 0.17151035845973006 0.9354735977721761 0.5420902658042965 0.2948043091687851 0.09273794955180226 0.8183839576170809 0.508621230276795 0.4294106028673711 0.858944942604574 0.7919588927960602 0.46214384030918976 0.301931997404298 0.6322754174861385 0.9218851948087323 0.24629004996514392 0.9768787554691221 0.8989784316184858 0.33281136248246834 0.7266923677919342 0.24915312330427442 0.07939867348146779 0.67604759380333 0.017313014197410936 0.8314589562009695 0.4266440469297399 0.08130530100125821 0.759310047695115 0.26292222661551734 0.6923374452417674 0.2540039041402199 0.8180935846774047 0.24202564947626115 0.12408876150912607 0.14272703012624333 0.17038299733139062 0.574753448235847 0.7105090634788214 0.6151992776434322 0.2866086349088467 0.05249825226112581 0.10690581630095697 0.5383972319072402 0.16157779470077505 0.8213138361141247 0.26695381867465773 0.027288019129841135 0.13067678903206326 0.4260156803014761 0.6511038994320404 0.5013059128253732 0.20666421120283218 0.7984925045986543 0.794866883903664 0.12133362767443867 0.6599768493449907 0.9861777744461656 0.07836750853816699 0.8866069084699842 0.23498062770516315 0.9204403536692192 0.8412099236959656 0.48030768689392656 0.019667954396068943 0.9490903990223699 0.6789642965467358 0.7299386232408299 0.8353663841002715 0.37117077606924276 0.34526165845006995 0.5905904456590338 0.3325886799714275 0.8856736425180523 0.22895000395252219 0.09817711265694407
1.0 0.2887001534275476 0.6269389646355755 0.256377581026619 0.09305938764738964 0.6580290990234188 0.07316504435723248 0.5875940049960177 0.5251885642062801 0.8720773303800626 0.6519978145913224 0.3135078593820195 0.2614456291708537 0.12114711506742937 0.9358978694653374 0.03230060205415275 0.9244041968430623 0.9171953823907149 0.5915141381187515 0.13037309435801858 0.43812981964481057 0.1512857631124731 0.5515537554619584 0.9215636213449271 0.6618926547302292 0.6826180027523906 0.7848902268311237 0.699643501771794 0.32589946592025854 0.4240087566201076 0.7498240249931934 0.47597038893306265 0.7082268415283937 0.8550889595389211 0.2055177980165953 0.9350258643877765 0.5398712506598434 0.6938564118944517 0.6514584973192016 0.9223953714662502 0.48402428754999893 0.6385458648447887 0.5997527568162266 0.9552564923475712 0.7729701996556131 0.9170205366868629 0.7612358369508377 0.8194068686416589 0.07566342135290338 0.3177636337001859 0.07071539941776772 0.7163945433381894 0.11246943247832752 0.5424879063527897 0.3356250315859983 0.11469951773241627 0.44769890715963334 0.2799622825458913 0.43813147829048515 0.9436280267133917 0.9017846261863371 0.008187425240984592 0.5301318082050795 0.398819016404909 0.233512376565576 0.7243353575178159 0.9867978284796022 0.4092872153153627 0.8173446114667703 0.6296797475766914 0.6746308513650588 0.6906550213548854 0.10152403115634068 0.06823398693602212 0.14482258663444292 0.2959000032703283 0.43018341909688085 0.1483603416908682 0.6346591306815962 0.8514292717528916 0.42845591800871186 0.00714237129872064 0.6711851190943738 0.9909736758968458 0.4897569466925632 0.10783512940197304 0.6720472201224031 0.6498788996895525 0.7924382405949406 0.5476984731034082 0.9181372142995369 0.5806150730698605 0.40390952321511187 0.49922278720838886 0.5607715527917501 0.9725797181262329 0.9945193522403111
-1.0 0.17942312443399744 0.20965535919113454 0.35920061313021223 0.8735146900483184 0.2367323621060753 0.023323524458659817 0.9029831229777929 0.6820344455383387 0.14394253544852942 0.13380752867368806 0.612218556867464 0.723027732772356 0.18437877388681911 0.5637269031993528 0.5691531267202025 0.13655025076904603 0.9568029864389206 0.7742523235127142 0.7468979097838162 0.9755890402354868 0.7954218761522003 0.9821725800119041 0.1424889610994593 0.17867054421467388 0.3531209550229787 0.5960643263814578 0.14499433441542264 0.7042134842569202 0.648049557915118 0.29860008710393293 0.43201295286896024 0.8163412914293551 0.2734563243145677 0.3474616133154752 0.6393665021771845 0.2023512579869765 0.8360614894347852 0.22248966209702548 0.4769812768236249 0.03004289494094292 0.6306474066870982 0.908007384649175 0.17733105551224848 0.5954962021382505 0.6908201614247418 0.8221277666295924 0.12768931030763186 0.1600251821854306 0.6156026881530435 0.9349500864055288 0.5899233631038048 0.48284647465572583 0.4728727015235821 0.0940245110824035 0.5574340979317255 0.027820418564754146 0.9576108349811199 0.6443726358841865 0.37972585996401387 0.19674519448327665 0.0604577214994233 0.3145188490282047 0.2826029329733808 0.4292630379282376 0.7989716681022729 0.35677558978715673 0.24364443816804726 0.45985581484333804 0.6493169657748852 0.36284914707341076 0.7517813436328762 0.8010320558014534 0.6687333847165017 0.6396280649599961 0.3295732806731797 0.5208141210448968 0.7960707356821599 0.37237270686086277 0.6170388606090846 0.07683092539126601 0.9061360606429477 0.2593862725769398 0.6070949003430754 0.1344766772976249 0.8598151603110423 0.22615792600920248 0.8147785006989315 0.7524301459448389 0.2866115408058413 0.45062352800051875 0.02289246509849896 0.6829520586721844 0.9136422536088747 0.18039934557459225 0.2834292847538199 0.5491055825444932
-1.0 0.016855496261800718 0.3242845759072017 0.6959650527322789 0.3041064730467248 0.45414033495913964 0.9079814413163791 0.9411861506560976 0.37186074133829916 0.6593393569673927 0.4752696684907103 0.29597744605356946 0.3932659680440508 0.6882631082519197 0.7117916993017279 0.7798603009153351 0.3548309115457172 0.5812649900798005 0.8842633303404539 0.8821010472287922 0.7312767814767912 0.05213838319676911 0.6973401563624918 0.4571667041559281 0.10541730534117721 0.32948776905512556 0.7918169839590186 0.8306966233759797 0.10440984742551418 0.36920000088426574 0.857358766339725 0.48711578164307456 0.4981848425432337 0.37695782784925536 0.0763226038386452 0.31470796564091064 0.16329790164721958 0.27798502678114956 0.3204696450566339 0.8088520640182447 0.5989995769161913 0.7157447767704399 0.5022329099384768 0.49149056295827287 0.8291537425891091 0.6166129678953133 0.7944544630466223 0.9756310488444406 0.3807099550104399 0.4575819030856527 0.34086205769272016 0.5384049525089946 0.22263892889974735 0.040684416420335046 0.02248792752745965 0.5421877188083783 0.13441242860783575 0.17882013528818919 0.7947968004118348 0.5670351727993842 0.36233206777038973 0.7722584431376124 0.17337207290495726 0.732424315688022 0.319500556887937 0.5386103960065689 0.5934823979115732 0.9510813549117698 0.9247586991564948 0.7251836494155149 0.6504714006021313 0.2981118295824077 0.4756758080993738 0.038866215045199604 0.6888087240217363 0.24123640867304863 0.26175539822569927 0.5931143015647227 0.041004023610780704 0.22517918774987267 0.27353341340917037 0.4366191990130731 0.21295030270121895 0.7951734125148393 0.4087655586474487 0.21458125047929888 0.6827132537702129 0.6499482604092404 0.5147756736544986 0.7394679354034708 0.20257734721646448 0.748314849475928 0.6208605834817377 0.09710004358973423 0.10989780812690297 0.39688935733739583 0.5033103574531502
